sample8,,sample9,,sample10,,sample12,,sample13,,
Wavelength (nm),Abs,Wavelength (nm),Abs,Wavelength (nm),Abs,Wavelength (nm),Abs,Wavelength (nm),Abs,
650.0159302,0.001254925155,650.0159302,0.00226527662,650.0159302,0.001839905977,650.0159302,0.0002470482723,650.0159302,0.006002334878,
648.993042,0.00125739153,648.993042,0.002431142377,648.993042,0.0023020464,648.993042,0.001182396547,648.993042,0.006588756572,
648.0064087,0.0008700181497,648.0064087,0.002676712815,648.0064087,0.001847678795,648.0064087,0.001095943968,648.0064087,0.006042362191,
646.9829712,0.001967408461,646.9829712,0.002456002869,646.9829712,0.002447776729,646.9829712,0.001205031294,646.9829712,0.005962521303,
645.9956665,0.001482999418,645.9956665,0.002706718864,645.9956665,0.002135501709,645.9956665,0.0008193384856,645.9956665,0.003945938312,
645.0082397,0.001906850492,645.0082397,0.002878225408,645.0082397,0.002315682825,645.0082397,0.001414717874,645.0082397,0.004032960162,
643.9838867,0.002004178939,643.9838867,0.003226214321,643.9838867,0.00226171175,643.9838867,0.001822567079,643.9838867,0.003141231136,
642.9957275,0.001806034707,642.9957275,0.002494559158,642.9957275,0.001839334029,642.9957275,0.001367454184,642.9957275,0.002451108769,
642.0074463,0.001179567305,642.0074463,0.002680958249,642.0074463,0.001709166449,642.0074463,0.0009807869792,642.0074463,0.002282633213,
640.9821167,0.001236285665,640.9821167,0.002214616165,640.9821167,0.001229172805,640.9821167,0.001020328258,640.9821167,0.001863458892,
639.9931641,0.001665664604,639.9931641,0.002612279728,639.9931641,0.001539315796,639.9931641,0.001538666431,639.9931641,0.002153659472,
639.0039673,0.001715013757,639.0039673,0.003066926962,639.0039673,0.001240309444,639.0039673,0.001558851684,639.0039673,0.00238085282,
638.0145264,0.001726448885,638.0145264,0.00283353799,638.0145264,0.001121922047,638.0145264,0.001585844671,638.0145264,0.002391472459,
636.9879761,0.001695834799,636.9879761,0.002804382937,636.9879761,0.001004656544,636.9879761,0.001675773063,636.9879761,0.002136308001,
635.9979858,0.001412328565,635.9979858,0.00247266423,635.9979858,0.0007735918043,635.9979858,0.001720809261,635.9979858,0.002083139494,
635.0075684,0.001403524657,635.0075684,0.002503879834,635.0075684,0.001095866086,635.0075684,0.001893720822,635.0075684,0.002058612416,
634.0169678,0.001682217699,634.0169678,0.002664575586,634.0169678,0.0009933443507,634.0169678,0.001801251899,634.0169678,0.002218466718,
632.9894409,0.00158761139,632.9894409,0.003238419304,632.9894409,0.001116497908,632.9894409,0.001949154423,632.9894409,0.002358156722,
631.9981689,0.001487285248,631.9981689,0.002598816063,631.9981689,0.0008023255505,631.9981689,0.001749137882,631.9981689,0.002016323851,
631.0067139,0.001582675031,631.0067139,0.002818035427,631.0067139,0.0009765580762,631.0067139,0.002259890316,631.0067139,0.002055231249,
630.0149536,0.001721329056,630.0149536,0.002921327716,630.0149536,0.001135028433,630.0149536,0.002349203685,630.0149536,0.001801563776,
628.9862061,0.002060953062,628.9862061,0.003157266881,628.9862061,0.001389864832,628.9862061,0.0022615036,628.9862061,0.002228197875,
627.9938965,0.0018681644,627.9938965,0.003207515925,627.9938965,0.0007755107945,627.9938965,0.002099890495,627.9938965,0.0018441953,
627.0013428,0.001963793999,627.0013428,0.003434426617,627.0013428,0.001284106169,627.0013428,0.002580535598,627.0013428,0.00226670783,
626.0084229,0.00222299411,626.0084229,0.003455665661,626.0084229,0.001288779546,626.0084229,0.002541607013,626.0084229,0.002182900906,
625.0153198,0.002399697667,625.0153198,0.003169600386,625.0153198,0.001561475568,625.0153198,0.003050555708,625.0153198,0.001922216732,
623.9851074,0.001865876606,623.9851074,0.003272819798,623.9851074,0.001195219229,623.9851074,0.00282910862,623.9851074,0.001976951724,
622.991394,0.00226314296,622.991394,0.003309857566,622.991394,0.001552824513,622.991394,0.00339443027,622.991394,0.001847106963,
621.9974365,0.002423593309,621.9974365,0.003542641411,621.9974365,0.001688090619,621.9974365,0.00381098548,621.9974365,0.001707581221,
621.0032349,0.002629728289,621.0032349,0.003528157249,621.0032349,0.002232126659,621.0032349,0.004138423596,621.0032349,0.002217009664,
620.008667,0.002541945549,620.008667,0.003375202883,620.008667,0.001993984915,620.008667,0.004254917614,620.008667,0.001940599643,
619.013916,0.002352821175,619.013916,0.003349089762,619.013916,0.001863458892,619.013916,0.004483422264,619.013916,0.00165703753,
617.9819946,0.00266004377,617.9819946,0.004008296411,617.9819946,0.002201685216,617.9819946,0.00552292401,617.9819946,0.001965068048,
616.9866333,0.003046593396,616.9866333,0.003844308434,616.9866333,0.002688381588,616.9866333,0.005962285213,616.9866333,0.00276822201,
615.9910278,0.00275814021,615.9910278,0.003611258464,615.9910278,0.00324566965,615.9910278,0.006504873279,615.9910278,0.002407012042,
614.9951782,0.002918304643,614.9951782,0.004056605976,614.9951782,0.003924649209,614.9951782,0.00772806257,614.9951782,0.003088930156,
613.9989624,0.002464750083,613.9989624,0.003825061256,613.9989624,0.004134320188,613.9989624,0.008185382932,613.9989624,0.003103634343,
613.0025635,0.002891332842,613.0025635,0.003866768908,613.0025635,0.004381640349,613.0025635,0.008466324769,613.0025635,0.003530010115,
612.0058594,0.002670644084,612.0058594,0.003660333343,612.0058594,0.003984574694,612.0058594,0.008601465262,612.0058594,0.003684115596,
611.0089722,0.002966076136,611.0089722,0.003678476671,611.0089722,0.003679703688,611.0089722,0.008937239647,611.0089722,0.00382545311,
610.0116577,0.00296704052,610.0116577,0.003834723961,610.0116577,0.003255971475,610.0116577,0.009271739982,610.0116577,0.004272066057,
609.0142212,0.002965867519,609.0142212,0.004012685735,609.0142212,0.00299868267,609.0142212,0.008919297718,609.0142212,0.00472426787,
608.0164185,0.002879919251,608.0164185,0.00413303962,608.0164185,0.002528510289,608.0164185,0.00830291491,608.0164185,0.004932100419,
607.0183716,0.003287113039,607.0183716,0.003918353934,607.0183716,0.002503072843,607.0183716,0.008175622672,607.0183716,0.005037913099,
605.9831543,0.00287723518,605.9831543,0.003890197026,605.9831543,0.002309072763,605.9831543,0.008067090996,605.9831543,0.004933540244,
604.9846191,0.002891541226,604.9846191,0.003608100116,604.9846191,0.00187364989,604.9846191,0.007559213322,604.9846191,0.004907018971,
603.9857178,0.002959091216,603.9857178,0.004280405585,603.9857178,0.002293901052,603.9857178,0.007791914977,603.9857178,0.005222446751,
602.9866943,0.003045185702,602.9866943,0.003997976892,602.9866943,0.00206001685,602.9866943,0.007658001501,602.9866943,0.00514236372,
601.9872437,0.0029875529,601.9872437,0.003962944262,601.9872437,0.002165444195,601.9872437,0.007826361805,601.9872437,0.005152108148,
600.9876709,0.003139275592,600.9876709,0.004076281562,600.9876709,0.002365132095,600.9876709,0.007328426931,600.9876709,0.005233188625,
599.9877319,0.002753346926,599.9877319,0.003899652045,599.9877319,0.00199705339,599.9877319,0.007158785593,599.9877319,0.004991615191,
598.9876099,0.003208115697,598.9876099,0.003875335446,598.9876099,0.002297102008,598.9876099,0.00615556119,598.9876099,0.004763497505,
597.9871826,0.003090494312,597.9871826,0.003946486861,597.9871826,0.002498464426,597.9871826,0.005807264242,597.9871826,0.004486011341,
596.9864502,0.00310209603,596.9864502,0.004154809751,596.9864502,0.002338767052,596.9864502,0.005248279776,596.9864502,0.004478897434,
595.9855347,0.003245852189,595.9855347,0.004053574987,595.9855347,0.002234416548,595.9855347,0.004471652675,595.9855347,0.00405124994,
594.984314,0.003108509583,594.984314,0.004162310157,594.984314,0.002239048015,594.984314,0.003992568702,594.984314,0.003938075621,
593.9829102,0.002922213636,593.9829102,0.003808844136,593.9829102,0.001901650568,593.9829102,0.003436435713,593.9829102,0.003385064192,
593.0183105,0.003331742715,593.0183105,0.003755783895,593.0183105,0.001958931331,593.0183105,0.003175389254,593.0183105,0.003117843531,
592.0162354,0.002960498678,592.0162354,0.003811272793,592.0162354,0.001903418568,592.0162354,0.002853496931,592.0162354,0.003073183587,
591.0140381,0.002781560645,591.0140381,0.003851751564,591.0140381,0.001599432784,591.0140381,0.002810766222,591.0140381,0.002509139013,
590.0115356,0.002469045576,590.0115356,0.003730822587,590.0115356,0.001768033369,590.0115356,0.002443611622,590.0115356,0.002610144205,
589.008728,0.002931699855,589.008728,0.003737976542,589.008728,0.002412426285,589.008728,0.002534498926,589.008728,0.002624988556,
588.0057373,0.002603112953,588.0057373,0.003616113449,588.0057373,0.002743890509,588.0057373,0.002263533184,588.0057373,0.00214419025,
587.0024414,0.002607149538,587.0024414,0.003771659452,587.0024414,0.003418563167,587.0024414,0.001962441718,587.0024414,0.00250270823,
585.9989624,0.002773588756,585.9989624,0.003845405299,585.9989624,0.003819342237,585.9989624,0.001923204749,585.9989624,0.002138284966,
584.9951172,0.002321017906,584.9951172,0.003683906747,584.9951172,0.004665051587,584.9951172,0.001662832219,584.9951172,0.002301083412,
583.9910889,0.002529681893,583.9910889,0.003622795688,583.9910889,0.005091575906,583.9910889,0.001631417195,583.9910889,0.002125382423,
582.9868164,0.002877808409,582.9868164,0.003722989932,582.9868164,0.006492208224,582.9868164,0.001794909476,582.9868164,0.002596837003,
581.9821777,0.0026137901,581.9821777,0.003774061799,581.9821777,0.00721971225,581.9821777,0.001334970002,581.9821777,0.002238813788,
581.0145874,0.002600456821,581.0145874,0.003972087521,581.0145874,0.007905517705,581.0145874,0.001573945745,581.0145874,0.002312638098,
580.0095825,0.002919894177,580.0095825,0.004262367729,580.0095825,0.008516585454,580.0095825,0.001654075342,580.0095825,0.002462927718,
579.0042114,0.003082595067,579.0042114,0.004180030432,579.0042114,0.009121296927,579.0042114,0.001565112616,579.0042114,0.002381451428,
577.9987183,0.002609571442,577.9987183,0.003957144916,577.9987183,0.008511226624,577.9987183,0.001127450028,577.9987183,0.002214381937,
576.9928589,0.002989220899,576.9928589,0.004046389833,576.9928589,0.008648043498,576.9928589,0.001213986776,576.9928589,0.002337465761,
575.9867554,0.003230804112,575.9867554,0.004588053096,575.9867554,0.008636504412,575.9867554,0.001596237067,575.9867554,0.002388088731,
575.0177002,0.003482881235,575.0177002,0.004363180138,575.0177002,0.008256979287,575.0177002,0.001520534279,575.0177002,0.002577775391,
574.0111694,0.00397655461,574.0111694,0.00482571125,574.0111694,0.007886854,574.0111694,0.001582649071,574.0111694,0.002744307509,
573.0042725,0.004202377517,573.0042725,0.005117531866,573.0042725,0.007600727957,573.0042725,0.001971334917,573.0042725,0.002873925725,
571.9972534,0.004557289183,571.9972534,0.005429469515,571.9972534,0.00708671147,571.9972534,0.001865200698,571.9972534,0.002858369611,
570.9899292,0.005011018831,570.9899292,0.005730876699,570.9899292,0.006607153919,570.9899292,0.002006129362,570.9899292,0.003005902749,
569.9823608,0.005503130145,569.9823608,0.00612607738,569.9823608,0.005904788617,569.9823608,0.002444366459,569.9823608,0.003385612043,
569.0118408,0.006274724845,569.0118408,0.006804372184,569.0118408,0.005669870414,569.0118408,0.002719091717,569.0118408,0.003632480046,
568.0037231,0.007140680682,568.0037231,0.007297178265,568.0037231,0.005459167995,568.0037231,0.002808395308,568.0037231,0.003792601638,
566.9954834,0.008237852715,566.9954834,0.008456532843,566.9954834,0.005671810824,566.9954834,0.003326395061,566.9954834,0.004261975642,
565.9868774,0.009312545881,565.9868774,0.01034247596,565.9868774,0.006203821395,565.9868774,0.003971617203,565.9868774,0.004771139473,
565.0154419,0.01040292252,565.0154419,0.01154803857,565.0154419,0.00645098323,565.0154419,0.004098388366,565.0154419,0.005068240222,
564.0063477,0.01219766773,564.0063477,0.0134229213,564.0063477,0.0074366685,564.0063477,0.00494225882,564.0063477,0.005595656577,
562.9970703,0.01406207401,562.9970703,0.01516247261,562.9970703,0.008340436965,562.9970703,0.005611363798,562.9970703,0.005883718375,
561.9875488,0.01655253209,561.9875488,0.01728066802,561.9875488,0.009740960784,561.9875488,0.00659325067,561.9875488,0.00706150569,
561.0151367,0.01878972352,561.0151367,0.01914096624,561.0151367,0.01107572019,561.0151367,0.007458999287,561.0151367,0.007151285652,
560.005127,0.02186835743,560.005127,0.02176636457,560.005127,0.01289117243,560.005127,0.008791957051,560.005127,0.008042276837,
558.994812,0.02586019412,558.994812,0.02454707585,558.994812,0.01497656107,558.994812,0.01026449166,558.994812,0.00917980168,
557.9842529,0.03048020415,557.9842529,0.02781969868,557.9842529,0.01749821007,557.9842529,0.0121616479,557.9842529,0.01018638816,
557.0109253,0.0356615074,557.0109253,0.03130138665,557.0109253,0.02024008706,557.0109253,0.01430248749,557.0109253,0.01138341147,
555.999939,0.04169859737,555.999939,0.03540265933,555.999939,0.02357028052,555.999939,0.01649006829,555.999939,0.01240655128,
554.9887085,0.0486523807,554.9887085,0.04014003277,554.9887085,0.02725865319,554.9887085,0.01937592588,554.9887085,0.01401648857,
554.0147095,0.05637503043,554.0147095,0.04566147551,554.0147095,0.03167372942,554.0147095,0.02263530158,554.0147095,0.01542843971,
553.0029297,0.06465754658,553.0029297,0.05172015354,553.0029297,0.03606978804,553.0029297,0.02575965039,553.0029297,0.01727479696,
551.9909668,0.07532005012,551.9909668,0.06019130722,551.9909668,0.04235481098,551.9909668,0.03014264815,551.9909668,0.01963923126,
551.0162354,0.08720868081,551.0162354,0.06876701862,551.0162354,0.04857113957,551.0162354,0.03459662572,551.0162354,0.02138998918,
550.0038452,0.1008323357,550.0038452,0.07937917113,550.0038452,0.05655553937,550.0038452,0.04018029571,550.0038452,0.02431737818,
548.9910889,0.1144920439,548.9910889,0.09000105411,548.9910889,0.06404702365,548.9910889,0.04540763423,548.9910889,0.02673643269,
548.015686,0.129901439,548.015686,0.1015416756,548.015686,0.07271307707,548.015686,0.05134971812,548.015686,0.0295824483,
547.0025635,0.1461337507,547.0025635,0.1144036427,547.0025635,0.08212994039,547.0025635,0.05785623565,547.0025635,0.03265205771,
545.9891968,0.1655886024,545.9891968,0.1291346997,545.9891968,0.0925790444,545.9891968,0.0653103292,545.9891968,0.03614970669,
545.0130615,0.1870536059,545.0130615,0.145510897,545.0130615,0.1047149673,545.0130615,0.07380149513,545.0130615,0.04004106671,
543.9992065,0.2069816142,543.9992065,0.1611120105,543.9992065,0.115877673,543.9992065,0.08172568679,543.9992065,0.04389077052,
542.9850464,0.2289001048,542.9850464,0.1775872558,542.9850464,0.1279625744,542.9850464,0.09013919532,542.9850464,0.04754974321,
542.0083008,0.2501963675,542.0083008,0.1947274804,542.0083008,0.1400905102,542.0083008,0.09846208245,542.0083008,0.05180950835,
540.9937134,0.2707112432,540.9937134,0.2108435929,540.9937134,0.1514652222,540.9937134,0.1063485146,540.9937134,0.05557657778,
540.0164795,0.2941708863,540.0164795,0.2284511328,540.0164795,0.1645502448,540.0164795,0.1155955195,540.0164795,0.05954952165,
539.0015259,0.3177561462,539.0015259,0.2469476014,539.0015259,0.1778715402,539.0015259,0.1248925254,539.0015259,0.06387581676,
537.986145,0.3404937387,537.986145,0.264418155,537.986145,0.1903638095,537.986145,0.1336627901,537.986145,0.06769794226,
537.0082397,0.3579743207,537.0082397,0.27766186,537.0082397,0.2002368569,537.0082397,0.1404155791,537.0082397,0.07095739245,
535.9924927,0.3773243129,535.9924927,0.2929086387,535.9924927,0.211234957,535.9924927,0.1480247825,535.9924927,0.07441022992,
535.0141602,0.3943075538,535.0141602,0.3057902753,535.0141602,0.220621407,535.0141602,0.1548068672,535.0141602,0.07716726512,
533.9979858,0.4079626799,533.9979858,0.3159176409,533.9979858,0.2277476937,533.9979858,0.1599024534,533.9979858,0.07972268015,
532.9815674,0.4177653193,532.9815674,0.3241402209,532.9815674,0.2334959507,532.9815674,0.1638896316,532.9815674,0.08115679026,
532.0025635,0.4261030555,532.0025635,0.3302111328,532.0025635,0.2378088981,532.0025635,0.1670950204,532.0025635,0.08231475204,
530.9855957,0.4310723841,530.9855957,0.3337807655,530.9855957,0.2406330854,530.9855957,0.1691170633,530.9855957,0.08278987557,
530.0061646,0.4329521954,530.0061646,0.3350788057,530.0061646,0.2416265011,530.0061646,0.1699239314,530.0061646,0.08278755844,
528.9887695,0.4315877557,528.9887695,0.3344104588,528.9887695,0.2409231216,528.9887695,0.1693812907,528.9887695,0.08246129751,
528.0089722,0.4279911518,528.0089722,0.3316844404,528.0089722,0.238647759,528.0089722,0.1681367755,528.0089722,0.08137175441,
526.9910889,0.4204313755,526.9910889,0.3254904151,526.9910889,0.2348286211,526.9910889,0.1654959768,526.9910889,0.07991412282,
526.0107422,0.4123000503,526.0107422,0.3193221688,526.0107422,0.2304508835,526.0107422,0.1626736075,526.0107422,0.07823842764,
524.9924927,0.4021134973,524.9924927,0.3113500476,524.9924927,0.2247940749,524.9924927,0.1587399095,524.9924927,0.07605907321,
524.0117188,0.3900009096,524.0117188,0.3019475043,524.0117188,0.2180594653,524.0117188,0.1539551616,524.0117188,0.07391232252,
522.992981,0.3748906851,522.992981,0.2905755341,522.992981,0.2101865411,522.992981,0.1487008631,522.992981,0.07090978324,
522.0117798,0.3605307937,522.0117798,0.2790891528,522.0117798,0.2021124363,522.0117798,0.1431129128,522.0117798,0.06812983006,
520.9926758,0.3446245492,520.9926758,0.2664392292,520.9926758,0.1930011958,520.9926758,0.1365080923,520.9926758,0.0651742667,
520.0110474,0.329754442,520.0110474,0.2552971244,520.0110474,0.1849952638,520.0110474,0.1312034875,520.0110474,0.06227952242,
518.991394,0.3143434525,518.991394,0.2434406579,518.991394,0.1764696389,518.991394,0.1246976182,518.991394,0.05935731903,
518.0092773,0.299108088,518.0092773,0.2315003425,518.0092773,0.1679693162,518.0092773,0.1194350272,518.0092773,0.05666544661,
516.9892578,0.2829890847,516.9892578,0.2199792713,516.9892578,0.1591968685,516.9892578,0.1131282896,516.9892578,0.05392380059,
516.0067749,0.2684002519,516.0067749,0.2080303282,516.0067749,0.1507491767,516.0067749,0.107279256,516.0067749,0.05121050403,
514.9862671,0.2540046871,514.9862671,0.1968624741,514.9862671,0.1429302394,514.9862671,0.1013389528,514.9862671,0.04818215221,
514.0032959,0.2420622259,514.0032959,0.1877333373,514.0032959,0.1358314753,514.0032959,0.09654519707,514.0032959,0.04621082917,
512.9824219,0.2287060618,512.9824219,0.1775549948,512.9824219,0.1282329112,512.9824219,0.09119024873,512.9824219,0.0437361747,
511.999054,0.217146039,511.999054,0.1686074734,511.999054,0.1220848337,511.999054,0.08662093431,511.999054,0.0413675569,
511.0154724,0.2072122246,511.0154724,0.160628587,511.0154724,0.1159490347,511.0154724,0.08256939054,511.0154724,0.03967047483,
509.9938354,0.1972213089,509.9938354,0.1533358097,509.9938354,0.1108837277,509.9938354,0.07857061177,509.9938354,0.03784082457,
509.0098267,0.1887530833,509.0098267,0.1468718052,509.0098267,0.1058558077,509.0098267,0.07531706244,509.0098267,0.0362868458,
507.9878235,0.1816703379,507.9878235,0.141017735,507.9878235,0.1017970368,507.9878235,0.07291397452,507.9878235,0.03527514637,
507.0033875,0.174279511,507.0033875,0.1360588968,507.0033875,0.097917974,507.0033875,0.06992426515,507.0033875,0.03399507329,
506.0187988,0.1685171127,506.0187988,0.1312573701,506.0187988,0.09439861029,506.0187988,0.06775345653,506.0187988,0.03250305727,
504.9961548,0.1633782983,504.9961548,0.1273868084,504.9961548,0.09155412763,504.9961548,0.06610220671,504.9961548,0.03165529668,
504.0110779,0.1589524597,504.0110779,0.1242538169,504.0110779,0.08928630501,504.0110779,0.06407921016,504.0110779,0.03097330965,
502.9879761,0.1551703811,502.9879761,0.1216085553,502.9879761,0.08708133548,502.9879761,0.06277944893,502.9879761,0.03042989038,
502.0024414,0.1521099955,502.0024414,0.1190825775,502.0024414,0.08567450941,502.0024414,0.06173824146,502.0024414,0.02957020141,
501.0167847,0.149242714,501.0167847,0.1167532876,501.0167847,0.08388345689,501.0167847,0.06058998406,501.0167847,0.02900691889,
499.993103,0.1466300637,499.993103,0.1148362011,499.993103,0.08252440393,499.993103,0.05936444178,499.993103,0.0284251608,
499.006958,0.1441242099,499.006958,0.112849094,499.006958,0.08153478801,499.006958,0.05860183388,499.006958,0.02804189548,
497.9828186,0.1419107318,497.9828186,0.111264661,497.9828186,0.08003147691,497.9828186,0.0578077957,497.9828186,0.02761590481,
496.9962769,0.1393963844,496.9962769,0.1095788777,496.9962769,0.07883901149,496.9962769,0.05680653825,496.9962769,0.0273338519,
496.009613,0.1366903484,496.009613,0.1076587066,496.009613,0.07704295218,496.009613,0.05599380657,496.009613,0.02671630867,
494.9848022,0.1338649988,494.9848022,0.1055959985,494.9848022,0.07559310645,494.9848022,0.0548738651,494.9848022,0.02649457008,
493.9976501,0.1307838112,493.9976501,0.1030096039,493.9976501,0.07341692597,493.9976501,0.05365867168,493.9976501,0.02555745281,
493.0103455,0.127172634,493.0103455,0.1001951322,493.0103455,0.07111702114,493.0103455,0.05250937864,493.0103455,0.02487956733,
491.9848633,0.1237350181,491.9848633,0.0977217108,491.9848633,0.06942592561,491.9848633,0.05094111711,491.9848633,0.02426246367,
490.9971619,0.1203997433,490.9971619,0.09543226659,490.9971619,0.06750337034,490.9971619,0.04964892194,490.9971619,0.0237023849,
490.0092773,0.1158832535,490.0092773,0.09165414423,490.0092773,0.06495112181,490.0092773,0.04810600355,490.0092773,0.02270517498,
488.9831543,0.1107006818,488.9831543,0.08792775869,488.9831543,0.06193496287,488.9831543,0.04625318572,488.9831543,0.02196070552,
487.9948425,0.1065528914,487.9948425,0.08444477618,487.9948425,0.05936248228,487.9948425,0.04423428327,487.9948425,0.02091956325,
487.0063171,0.1018807516,487.0063171,0.08122975379,487.0063171,0.05692315102,487.0063171,0.04284027964,487.0063171,0.02018094063,
486.0176697,0.09689299017,486.0176697,0.07720192522,486.0176697,0.05419161171,486.0176697,0.04076068476,486.0176697,0.01922286116,
484.9906921,0.09181980789,484.9906921,0.07336224616,484.9906921,0.05151672289,484.9906921,0.03913414478,484.9906921,0.01826200448,
484.0015869,0.0879175216,484.0015869,0.07005747408,484.0015869,0.04907126352,484.0015869,0.03698822856,484.0015869,0.01751664467,
483.0122375,0.08316163719,483.0122375,0.06674162298,483.0122375,0.04651103541,483.0122375,0.03523039818,483.0122375,0.01665954664,
481.9846802,0.07818127424,481.9846802,0.0625988245,481.9846802,0.04348045588,481.9846802,0.03331477195,481.9846802,0.01563839987,
480.9949646,0.07353060693,480.9949646,0.0589383617,480.9949646,0.04101722687,480.9949646,0.03158048913,480.9949646,0.01490987558,
480.0050354,0.06925231218,480.0050354,0.05586204305,480.0050354,0.03857858479,480.0050354,0.02998971008,480.0050354,0.01415708382,
479.0149231,0.06517072022,479.0149231,0.05281624943,479.0149231,0.03654208407,479.0149231,0.02898002043,479.0149231,0.01321445592,
477.9865417,0.06109628454,477.9865417,0.04978537187,477.9865417,0.03441677988,477.9865417,0.02827274241,477.9865417,0.01252925396,
476.9960938,0.05752734095,476.9960938,0.04678699747,476.9960938,0.0323042497,476.9960938,0.02811405249,476.9960938,0.01201033313,
476.0054016,0.054385297,476.0054016,0.04435723275,476.0054016,0.03058603965,476.0054016,0.0281399861,476.0054016,0.01131815184,
475.0144958,0.05119876564,475.0144958,0.04225439951,475.0144958,0.02918725275,475.0144958,0.02809419669,475.0144958,0.01077846345,
473.9852905,0.04828295857,473.9852905,0.03975174204,473.9852905,0.02726358734,473.9852905,0.02773315832,473.9852905,0.01004373375,
472.9940186,0.04540987685,472.9940186,0.03775737807,472.9940186,0.02584959008,472.9940186,0.02754129097,472.9940186,0.009489935823,
472.0025024,0.04318945482,472.0025024,0.03595450521,472.0025024,0.02472194843,472.0025024,0.02716307715,472.0025024,0.009133826941,
471.0108948,0.04104374349,471.0108948,0.03468179703,471.0108948,0.02357243933,471.0108948,0.02666111849,471.0108948,0.008954203688,
470.019043,0.03880630061,470.019043,0.03309324384,470.019043,0.02239764482,470.019043,0.02583491988,470.019043,0.008397807367,
468.9887695,0.03691959754,468.9887695,0.03202295303,468.9887695,0.02160970867,468.9887695,0.02486161329,468.9887695,0.008122606203,
467.996521,0.03504916281,467.996521,0.03103352897,467.996521,0.02067711577,467.996521,0.02419696562,467.996521,0.007728958502,
467.0041504,0.03373660147,467.0041504,0.0300094299,467.0041504,0.01998159289,467.0041504,0.02356096171,467.0041504,0.007368471008,
466.0115051,0.03223646805,466.0115051,0.02913102694,466.0115051,0.01935979351,466.0115051,0.02269241028,466.0115051,0.00730507588,
465.0186462,0.03060681745,465.0186462,0.02803104371,465.0186462,0.01845354028,465.0186462,0.0212109331,465.0186462,0.006761829369,
463.9874878,0.02948890813,463.9874878,0.02714800276,463.9874878,0.01796143502,463.9874878,0.02011152543,463.9874878,0.006941731554,
462.9942322,0.02827655338,462.9942322,0.02627852559,462.9942322,0.01740825921,462.9942322,0.01841027476,462.9942322,0.006462333724,
462.000885,0.02713480406,462.000885,0.02548931353,462.000885,0.01694500446,462.000885,0.01683310233,462.000885,0.00644507166,
461.0072937,0.02597392537,461.0072937,0.02465402335,461.0072937,0.01657861844,461.0072937,0.01530789118,461.0072937,0.006212644279,
460.0135498,0.02466098405,460.0135498,0.0234609209,460.0135498,0.01592624746,460.0135498,0.01391314249,460.0135498,0.005909669679,
458.9813843,0.02375753038,458.9813843,0.02244695462,458.9813843,0.01561797969,458.9813843,0.01252451167,458.9813843,0.005693343468,
457.9872131,0.02281535417,457.9872131,0.02145329863,457.9872131,0.0150239896,457.9872131,0.01214828435,457.9872131,0.00565549871,
456.9928284,0.02164847963,456.9928284,0.02060222067,456.9928284,0.01453875005,456.9928284,0.01170498971,456.9928284,0.0054816599,
455.9983521,0.02067662776,455.9983521,0.0198047962,455.9983521,0.01416045334,455.9983521,0.01136337593,455.9983521,0.005395946093,
455.0036621,0.01939874329,455.0036621,0.01869366877,455.0036621,0.01355734281,455.0036621,0.01087275799,455.0036621,0.00499674771,
454.0087585,0.01851609908,454.0087585,0.01801237464,454.0087585,0.01326302718,454.0087585,0.01054686215,454.0087585,0.004920816515,
453.0136719,0.01740389504,453.0136719,0.0169486925,453.0136719,0.01281307545,453.0136719,0.01017141528,453.0136719,0.004751536995,
452.0184326,0.01665088534,452.0184326,0.01602940261,452.0184326,0.01236923505,452.0184326,0.009765581228,452.0184326,0.004631456453,
450.9846497,0.0156865716,450.9846497,0.01500105206,450.9846497,0.01181164104,450.9846497,0.009105593897,450.9846497,0.004252826329,
449.9889832,0.01471981499,449.9889832,0.01420284528,449.9889832,0.01131791342,449.9889832,0.009000477381,449.9889832,0.004131994676,
448.9931946,0.0140816737,448.9931946,0.01368464623,448.9931946,0.01094875485,448.9931946,0.008812587708,448.9931946,0.004195294343,
447.9971924,0.0131270159,447.9971924,0.01265628263,447.9971924,0.01045709383,447.9971924,0.008267111145,447.9971924,0.003778474638,
447.0010376,0.01262819301,447.0010376,0.01207364723,447.0010376,0.01018283702,447.0010376,0.007992440835,447.0010376,0.003787274705,
446.0046387,0.01191329025,446.0046387,0.01161668263,446.0046387,0.009847528301,446.0046387,0.007712542079,446.0046387,0.003688866971,
445.0080872,0.01120126247,445.0080872,0.01107601263,445.0080872,0.009419061244,445.0080872,0.00730060041,445.0080872,0.003620811971,
444.0113831,0.01078552194,444.0113831,0.01066487562,444.0113831,0.009221709333,444.0113831,0.007358150557,444.0113831,0.00354861794,
443.0144958,0.0101187909,443.0144958,0.0101665929,443.0144958,0.008775263093,443.0144958,0.00698129274,443.0144958,0.003430408426,
442.0173645,0.00960215833,442.0173645,0.009765766561,442.0173645,0.008453787304,442.0173645,0.006803504657,442.0173645,0.003246347653,
440.98172,0.009221841581,440.98172,0.009577943943,440.98172,0.008466510102,440.98172,0.006730542984,440.98172,0.003340455238,
439.984314,0.008947676979,439.984314,0.00937478058,439.984314,0.008145420812,439.984314,0.006444546394,439.984314,0.003406509524,
438.9866333,0.008354923688,438.9866333,0.008976692334,438.9866333,0.007855065167,438.9866333,0.006245968398,438.9866333,0.003234611824,
437.9888306,0.008030542172,437.9888306,0.00858229585,437.9888306,0.00754851941,437.9888306,0.006108277477,437.9888306,0.002935661236,
436.9908447,0.007814184763,436.9908447,0.008365136571,436.9908447,0.007153969724,436.9908447,0.005973701365,436.9908447,0.003042031312,
435.9926758,0.007435536012,435.9926758,0.008224371821,435.9926758,0.007099736016,435.9926758,0.00588626368,435.9926758,0.002897117985,
434.9943542,0.006972059608,434.9943542,0.007806805428,434.9943542,0.006622529589,434.9943542,0.005456258543,434.9943542,0.002781430259,
433.9957581,0.006916007958,433.9957581,0.007826335728,433.9957581,0.006534120068,433.9957581,0.00549083529,433.9957581,0.002826581243,
432.9971008,0.006982923951,432.9971008,0.007713754196,432.9971008,0.006372774485,432.9971008,0.005449364427,432.9971008,0.002910538577,
431.99823,0.006819807459,431.99823,0.007583473809,431.99823,0.006326124072,431.99823,0.005251423921,431.99823,0.003056421177,
430.9991455,0.006430779584,430.9991455,0.007286438253,430.9991455,0.005649571773,430.9991455,0.005075992085,430.9991455,0.002755665453,
429.9999084,0.006285177544,429.9999084,0.007455654908,429.9999084,0.005640970077,429.9999084,0.005141211208,429.9999084,0.002898368752,
429.0005493,0.006443180144,429.0005493,0.007507194299,429.0005493,0.005757316947,429.0005493,0.005052290857,429.0005493,0.002985337283,
428.000946,0.006345771253,428.000946,0.007613952272,428.000946,0.005625917576,428.000946,0.005003110971,428.000946,0.00322081591,
427.0011597,0.006137156393,427.0011597,0.007435061969,427.0011597,0.005448997486,427.0011597,0.004891311284,427.0011597,0.003194320714,
426.0012817,0.006293870974,426.0012817,0.007592930458,426.0012817,0.005450963508,426.0012817,0.00497883698,426.0012817,0.003400613321,
425.0011902,0.005941238254,425.0011902,0.007408203557,425.0011902,0.005356947891,425.0011902,0.004726283252,425.0011902,0.003443715163,
424.000885,0.006406767759,424.000885,0.007652732078,424.000885,0.005365622696,424.000885,0.004656626377,424.000885,0.003941366915,
423.0004578,0.006366864312,423.0004578,0.007641719654,423.0004578,0.005461212713,423.0004578,0.00476797251,423.0004578,0.004144434351,
421.9998474,0.006489028689,421.9998474,0.007725532632,421.9998474,0.005559419747,421.9998474,0.004898772575,421.9998474,0.004336798098,
420.9990234,0.006602633279,420.9990234,0.007969792001,420.9990234,0.005765291397,420.9990234,0.005022724625,420.9990234,0.004957209341,
419.9980469,0.006752916612,419.9980469,0.008091827855,419.9980469,0.005762930494,419.9980469,0.00508864224,419.9980469,0.005159259308,
418.9969482,0.00675436249,418.9969482,0.007924077101,418.9969482,0.005753382109,418.9969482,0.004881337285,418.9969482,0.005414764863,
417.995636,0.006966246292,417.995636,0.008082413115,417.995636,0.005718863569,417.995636,0.004893091507,417.995636,0.005747008137,
416.9941101,0.007026040927,416.9941101,0.008142967708,416.9941101,0.005845594686,416.9941101,0.005049698055,416.9941101,0.005985354073,
415.9924927,0.007308577187,415.9924927,0.008432434872,415.9924927,0.005971706938,415.9924927,0.005169554148,415.9924927,0.006264167372,
414.9907227,0.007507773582,414.9907227,0.008365585469,414.9907227,0.005982913077,414.9907227,0.005022541154,414.9907227,0.006443994585,
413.988739,0.007318633609,413.988739,0.00826726947,413.988739,0.005979160313,413.988739,0.004735075869,413.988739,0.006414569914,
412.9865417,0.007809441071,412.9865417,0.008813089691,412.9865417,0.006356725004,412.9865417,0.005173719022,412.9865417,0.006884946954,
411.9842224,0.007915060967,411.9842224,0.008847300895,411.9842224,0.006545209792,411.9842224,0.005078218412,411.9842224,0.006777341943,
410.981781,0.008021181449,410.981781,0.008758252487,410.981781,0.006222438999,410.981781,0.00515582785,410.981781,0.006524265744,
410.0176392,0.00826059375,410.0176392,0.00913147442,410.0176392,0.006894888356,410.0176392,0.00522855157,410.0176392,0.006344352849,
409.0148621,0.008213925175,409.0148621,0.009148023091,409.0148621,0.006688191555,409.0148621,0.004957811441,409.0148621,0.006179979537,
408.0118408,0.008463500999,408.0118408,0.009209203534,408.0118408,0.006589124445,408.0118408,0.005207356531,408.0118408,0.006077432074,
407.0086975,0.008523738943,407.0086975,0.009172848426,407.0086975,0.006514306646,407.0086975,0.005115332082,407.0086975,0.005837933626,
406.0054321,0.008687629364,406.0054321,0.009195348248,406.0054321,0.006691661198,406.0054321,0.005240682047,406.0054321,0.005710653961,
405.0019226,0.008831265382,405.0019226,0.009206982329,405.0019226,0.006639430299,405.0019226,0.004991353489,405.0019226,0.005265860818,
403.9982605,0.008928070776,403.9982605,0.009435727261,403.9982605,0.0069679562,403.9982605,0.005082408898,403.9982605,0.005324714351,
402.9944763,0.008923103102,402.9944763,0.009446415119,402.9944763,0.006746764295,402.9944763,0.005192476325,402.9944763,0.005188310985,
401.990509,0.009024368599,401.990509,0.009475754574,401.990509,0.00686361827,401.990509,0.005100742914,401.990509,0.005144616123,
400.9863586,0.009277530946,400.9863586,0.009586861357,400.9863586,0.006997734308,400.9863586,0.005051688291,400.9863586,0.004891913384,
399.9820862,0.009320903569,399.9820862,0.009414590895,399.9820862,0.006831246428,399.9820862,0.005077275448,399.9820862,0.00476252893,

sample8,
sample8
Collection Time: 18/12/2022 3:42:47 PM
Operator Name  :
Scan Version 5.0.0.999
Parameter List :
Instrument  Cary 60
Instrument Version  2.00
Start (nm)  650.0
Stop (nm)  400.0
X Mode  Nanometers
Y Mode  Abs
UV-Vis Scan Rate (nm/min)  600.000
UV-Vis Data Interval (nm)  1.00
UV-Vis Ave. Time (sec)  0.1000
Beam Mode  Dual Beam
Baseline Correction  On
Baseline Type  Zero/baseline correction
Baseline File Name
Baseline Std Ref File Name
Cycle Mode  Off
Method Log     :
Method Name    :
Date/Time stamp: 18/12/2022 2:47:56 PM
Method Modifications:
UVVIS SAT Changed: 18/12/2022 2:48:14 PM, Old:0.0125, New:0.1000
Common SAT Changed: 18/12/2022 2:48:14 PM, Old:0.0125, New:0.1000
Common Interval nm Changed: 18/12/2022 2:48:25 PM, Old:     5.00, New:     1.00
Baseline Correction Changed: 18/12/2022 2:48:25 PM, Old:0, New:2
Storage Changed: 18/12/2022 2:48:25 PM, Old:1, New:0
X Start nm Changed: 18/12/2022 3:02:57 PM, Old:  800.0, New:  650.0
X Stop nm Changed: 18/12/2022 3:02:57 PM, Old:  200.0, New:  400.0
End Method Modifications
<Current Wavelength> , 409.0

sample9,
sample9
Collection Time: 18/12/2022 3:48:54 PM
Operator Name  :
Scan Version 5.0.0.999
Parameter List :
Instrument  Cary 60
Instrument Version  2.00
Start (nm)  650.0
Stop (nm)  400.0
X Mode  Nanometers
Y Mode  Abs
UV-Vis Scan Rate (nm/min)  600.000
UV-Vis Data Interval (nm)  1.00
UV-Vis Ave. Time (sec)  0.1000
Beam Mode  Dual Beam
Baseline Correction  On
Baseline Type  Zero/baseline correction
Baseline File Name
Baseline Std Ref File Name
Cycle Mode  Off
Method Log     :
Method Name    :
Date/Time stamp: 18/12/2022 2:47:56 PM
Method Modifications:
UVVIS SAT Changed: 18/12/2022 2:48:14 PM, Old:0.0125, New:0.1000
Common SAT Changed: 18/12/2022 2:48:14 PM, Old:0.0125, New:0.1000
Common Interval nm Changed: 18/12/2022 2:48:25 PM, Old:     5.00, New:     1.00
Baseline Correction Changed: 18/12/2022 2:48:25 PM, Old:0, New:2
Storage Changed: 18/12/2022 2:48:25 PM, Old:1, New:0
X Start nm Changed: 18/12/2022 3:02:57 PM, Old:  800.0, New:  650.0
X Stop nm Changed: 18/12/2022 3:02:57 PM, Old:  200.0, New:  400.0
End Method Modifications
<Current Wavelength> , 400.0

sample10,
sample10
Collection Time: 18/12/2022 3:53:45 PM
Operator Name  :
Scan Version 5.0.0.999
Parameter List :
Instrument  Cary 60
Instrument Version  2.00
Start (nm)  650.0
Stop (nm)  400.0
X Mode  Nanometers
Y Mode  Abs
UV-Vis Scan Rate (nm/min)  600.000
UV-Vis Data Interval (nm)  1.00
UV-Vis Ave. Time (sec)  0.1000
Beam Mode  Dual Beam
Baseline Correction  On
Baseline Type  Zero/baseline correction
Baseline File Name
Baseline Std Ref File Name
Cycle Mode  Off
Method Log     :
Method Name    :
Date/Time stamp: 18/12/2022 2:47:56 PM
Method Modifications:
UVVIS SAT Changed: 18/12/2022 2:48:14 PM, Old:0.0125, New:0.1000
Common SAT Changed: 18/12/2022 2:48:14 PM, Old:0.0125, New:0.1000
Common Interval nm Changed: 18/12/2022 2:48:25 PM, Old:     5.00, New:     1.00
Baseline Correction Changed: 18/12/2022 2:48:25 PM, Old:0, New:2
Storage Changed: 18/12/2022 2:48:25 PM, Old:1, New:0
X Start nm Changed: 18/12/2022 3:02:57 PM, Old:  800.0, New:  650.0
X Stop nm Changed: 18/12/2022 3:02:57 PM, Old:  200.0, New:  400.0
End Method Modifications
<Current Wavelength> , 404.0

sample12,
sample12
Collection Time: 18/12/2022 3:57:53 PM
Operator Name  :
Scan Version 5.0.0.999
Parameter List :
Instrument  Cary 60
Instrument Version  2.00
Start (nm)  650.0
Stop (nm)  400.0
X Mode  Nanometers
Y Mode  Abs
UV-Vis Scan Rate (nm/min)  600.000
UV-Vis Data Interval (nm)  1.00
UV-Vis Ave. Time (sec)  0.1000
Beam Mode  Dual Beam
Baseline Correction  On
Baseline Type  Zero/baseline correction
Baseline File Name
Baseline Std Ref File Name
Cycle Mode  Off
Method Log     :
Method Name    :
Date/Time stamp: 18/12/2022 2:47:56 PM
Method Modifications:
UVVIS SAT Changed: 18/12/2022 2:48:14 PM, Old:0.0125, New:0.1000
Common SAT Changed: 18/12/2022 2:48:14 PM, Old:0.0125, New:0.1000
Common Interval nm Changed: 18/12/2022 2:48:25 PM, Old:     5.00, New:     1.00
Baseline Correction Changed: 18/12/2022 2:48:25 PM, Old:0, New:2
Storage Changed: 18/12/2022 2:48:25 PM, Old:1, New:0
X Start nm Changed: 18/12/2022 3:02:57 PM, Old:  800.0, New:  650.0
X Stop nm Changed: 18/12/2022 3:02:57 PM, Old:  200.0, New:  400.0
End Method Modifications
<Current Wavelength> , 406.0

sample13,
sample13
Collection Time: 18/12/2022 4:01:51 PM
Operator Name  :
Scan Version 5.0.0.999
Parameter List :
Instrument  Cary 60
Instrument Version  2.00
Start (nm)  650.0
Stop (nm)  400.0
X Mode  Nanometers
Y Mode  Abs
UV-Vis Scan Rate (nm/min)  600.000
UV-Vis Data Interval (nm)  1.00
UV-Vis Ave. Time (sec)  0.1000
Beam Mode  Dual Beam
Baseline Correction  On
Baseline Type  Zero/baseline correction
Baseline File Name
Baseline Std Ref File Name
Cycle Mode  Off
Method Log     :
Method Name    :
Date/Time stamp: 18/12/2022 2:47:56 PM
Method Modifications:
UVVIS SAT Changed: 18/12/2022 2:48:14 PM, Old:0.0125, New:0.1000
Common SAT Changed: 18/12/2022 2:48:14 PM, Old:0.0125, New:0.1000
Common Interval nm Changed: 18/12/2022 2:48:25 PM, Old:     5.00, New:     1.00
Baseline Correction Changed: 18/12/2022 2:48:25 PM, Old:0, New:2
Storage Changed: 18/12/2022 2:48:25 PM, Old:1, New:0
X Start nm Changed: 18/12/2022 3:02:57 PM, Old:  800.0, New:  650.0
X Stop nm Changed: 18/12/2022 3:02:57 PM, Old:  200.0, New:  400.0
End Method Modifications
<Current Wavelength> , 401.0

