sample21,,sample22,,sample24,,sample26,,sample27,,
Wavelength (nm),Abs,Wavelength (nm),Abs,Wavelength (nm),Abs,Wavelength (nm),Abs,Wavelength (nm),Abs,
700.003418,0.002403654158,700.003418,-0.001141725807,700.003418,0.005036551505,700.003418,-0.0008988137706,700.003418,-0.001456849277,
698.9962158,0.002407949185,698.9962158,-0.001146373106,698.9962158,0.004487293307,698.9962158,-0.000754644745,698.9962158,-0.001338259666,
697.9887085,0.002084700158,697.9887085,-0.001171002514,697.9887085,0.002871398116,697.9887085,-0.00100982748,697.9887085,-0.001371135702,
697.0168457,0.002316853963,697.0168457,-0.001103668474,697.0168457,0.001425599563,697.0168457,-0.001051198458,697.0168457,-0.001688104123,
696.008728,0.002529577818,696.008728,-0.001254071249,696.008728,-0.000233842642,696.008728,-0.0008285954827,696.008728,-0.001080842689,
695.0001831,0.001941977767,695.0001831,-0.001256084535,695.0001831,-0.0009170511039,695.0001831,-0.0008240998723,695.0001831,-0.001514584292,
693.991394,0.002036505146,693.991394,-0.001540946891,693.991394,-0.00163704576,693.991394,-0.0009490808006,693.991394,-0.001540327794,
692.9821777,0.00228890474,692.9821777,-0.00112618308,692.9821777,-0.001533724368,692.9821777,-0.001035704161,692.9821777,-0.001519537065,
692.0087891,0.002298689447,692.0087891,-0.001165271271,692.0087891,-0.00138331519,692.0087891,-0.0003996507148,692.0087891,-0.0009280550876,
690.9989624,0.002091332804,690.9989624,-0.001326027326,690.9989624,-0.001762463246,690.9989624,-0.001337124151,690.9989624,-0.001775044249,
689.9888916,0.002652751049,689.9888916,-0.0003816502867,689.9888916,-0.0005981749855,689.9888916,-0.0006995481672,689.9888916,-0.000951922033,
689.0145264,0.002158160089,689.0145264,-0.001439511892,689.0145264,-0.001258562435,689.0145264,-0.0007858079043,689.0145264,-0.001469335984,
688.0037842,0.002778460504,688.0037842,-0.001055795001,688.0037842,-0.001604654011,688.0037842,-0.000493985659,688.0037842,-0.001631526859,
686.9926147,0.002455352107,686.9926147,-0.001468923176,686.9926147,-0.001049287501,686.9926147,-0.0008324709488,686.9926147,-0.001485227607,
686.017334,0.002505702432,686.017334,-0.001235435135,686.017334,-0.0007742317975,686.017334,-0.0005875762436,686.017334,-0.001344143413,
685.0056763,0.002090656431,685.0056763,-0.001237448421,685.0056763,-0.00173111225,685.0056763,-0.0009126597433,685.0056763,-0.001297535375,
683.9935913,0.002243991708,683.9935913,-0.0008934922516,683.9935913,-0.001264653751,683.9935913,-0.000937095785,683.9935913,-0.001434558188,
683.017395,0.003176667029,683.017395,-0.0005291490816,683.017395,-0.000754231296,683.017395,-0.000702856225,683.017395,-0.0007988306461,
682.0046997,0.002581733279,682.0046997,-0.0007539729122,682.0046997,-0.001139712054,682.0046997,-0.0007375893183,682.0046997,-0.0009648881387,
680.9916992,0.002606967231,680.9916992,-0.001115390682,680.9916992,-0.00117616565,680.9916992,-0.0006021042354,680.9916992,-0.00123584806,
680.0145264,0.00264725578,680.0145264,-0.001088744029,680.0145264,-0.001306361868,680.0145264,-0.0007418274181,680.0145264,-0.001346466015,
679.0009766,0.002393710893,679.0009766,-0.001023618272,679.0009766,-0.001369484235,679.0009766,-0.0004328564683,679.0009766,-0.001160211163,
677.9869385,0.002646656707,677.9869385,-0.0008001742535,677.9869385,-0.001301768003,677.9869385,-0.0006242830423,677.9869385,-0.001202290645,
677.0089111,0.002673482988,677.0089111,-0.001046550227,677.0089111,-0.001123549533,677.0089111,-0.0008817123598,677.0089111,-0.0009679358918,
675.9943848,0.002798885806,675.9943848,-0.0009949514642,675.9943848,-0.001373148407,675.9943848,-0.0005417658831,675.9943848,-0.001173842233,
675.015686,0.002652959432,675.015686,-0.0006680687075,675.015686,-0.0009916973067,675.015686,0.0002897865197,675.015686,-0.0007523707463,
674.0004883,0.0024015198,674.0004883,-0.001242249506,674.0004883,-0.001523096813,674.0004883,-0.0008919422398,674.0004883,-0.001261401572,
672.9849854,0.002664888045,672.9849854,-0.0009485642076,672.9849854,-0.001390643301,672.9849854,-0.0006551970728,672.9849854,-0.0009970692918,
672.0054321,0.002838097746,672.0054321,-0.0007612082991,672.0054321,-0.001568494248,672.0054321,-0.000905375171,672.0054321,-0.0006070674281,
670.9892578,0.002899463288,670.9892578,-0.0008368631243,670.9892578,-0.0005665847566,670.9892578,-0.0005247021327,670.9892578,-0.0006438242854,
670.0090942,0.002813553903,670.0090942,-0.001091636019,670.0090942,-0.001129849348,670.0090942,-0.0007576940116,670.0090942,-0.001246121246,
668.9923096,0.002615430858,668.9923096,-0.0007031663554,668.9923096,-0.001084974152,668.9923096,-0.001120347995,668.9923096,-0.0009625119274,
668.0115356,0.002985285129,668.0115356,-0.0007594511844,668.0115356,-0.0009539883467,668.0115356,-0.001087452983,668.0115356,-0.001017058617,
666.9941406,0.003044090699,666.9941406,-0.001171518816,666.9941406,-0.0008671936812,666.9941406,-0.000818312401,666.9941406,-0.001221134793,
666.0127563,0.00301943114,666.0127563,-0.0004062196531,666.0127563,-0.000265508861,666.0127563,-0.0006567478995,666.0127563,-0.0004213226784,
664.994812,0.003321230412,664.994812,-0.0004946062109,664.994812,-0.000948822475,664.994812,-0.0009931952227,664.994812,-0.0008750472334,
664.0127563,0.002862330293,664.0127563,-0.0007658596151,664.0127563,-0.0009419518174,664.0127563,-0.0005504009314,664.0127563,-0.0007782627945,
662.9942017,0.003019222524,662.9942017,-0.0004668354231,662.9942017,-0.001368710073,662.9942017,-0.001063851756,662.9942017,-0.0009999618633,
662.0116577,0.003156093415,662.0116577,-0.000758986047,662.0116577,-0.0007579523954,662.0116577,-0.0008535012603,662.0116577,-0.001019486226,
660.9923706,0.003344785422,660.9923706,-0.0001725733455,660.9923706,-0.001187989255,660.9923706,-0.0006820253911,660.9923706,-0.0008801106596,
660.0092773,0.00296677975,660.0092773,-0.000309123745,660.0092773,-0.001027905149,660.0092773,-0.0007950065774,660.0092773,-0.0008424953558,
658.9894409,0.003353550564,658.9894409,-0.000440459291,658.9894409,-0.0009258336504,658.9894409,-0.0009472727543,658.9894409,-0.001190209296,
658.0056763,0.003538570134,658.0056763,-0.0005006048596,658.0056763,-0.0008606316987,658.0056763,-0.0004203399585,658.0056763,-0.0009163794457,
656.9851685,0.003781138221,656.9851685,-6.70394802E-005,656.9851685,-0.0009357525851,656.9851685,-0.0003890471125,656.9851685,-0.0007132454775,
656.0009155,0.003148636315,656.0009155,-0.0005072240019,656.0009155,-0.000721670338,656.0009155,-0.0004572160833,656.0009155,-0.001086265198,
655.0162964,0.003644305049,655.0162964,-0.0001245454187,655.0162964,-0.0003120726324,655.0162964,-0.0003386634635,655.0162964,-0.000745031808,
653.994873,0.00368017354,653.994873,-0.000592694676,653.994873,-0.001035342575,653.994873,-0.0009678325732,653.994873,-0.0007584692212,
653.0097656,0.003564929822,653.0097656,-0.0002008804149,653.0097656,-0.0005957967369,653.0097656,-0.0007412072155,653.0097656,-0.0009003637242,
651.987793,0.003138415283,651.987793,-0.0007700974238,651.987793,-0.001369535807,651.987793,-0.001147509087,651.987793,-0.001365974778,
651.0020142,0.003960567061,651.0020142,-0.0001889264677,651.0020142,-0.0007925777463,651.0020142,-8.981502469E-005,651.0020142,-0.0009967593942,
650.0159302,0.003676048713,650.0159302,0.000179633993,650.0159302,-0.001171880169,650.0159302,-0.000833401049,650.0159302,-0.001141157816,
648.993042,0.004020131659,648.993042,1.925958713E-005,648.993042,-0.0006179242046,648.993042,-0.000626144174,648.993042,-0.0006952063413,
648.0064087,0.004412000068,648.0064087,-6.874769315E-005,648.0064087,-0.0007250299095,648.0064087,-0.0005909885513,648.0064087,-0.001058222377,
646.9829712,0.004515384324,646.9829712,0.0004123002582,646.9829712,-0.0003332316119,646.9829712,-0.0003737877996,646.9829712,-0.001278126729,
645.9956665,0.004944746383,645.9956665,0.0008137106779,645.9956665,8.778819029E-005,645.9956665,1.944079668E-005,645.9956665,-0.0006237661,
645.0082397,0.005042312667,645.0082397,0.000815552019,645.0082397,-0.0002897743834,645.0082397,-0.000281341112,645.0082397,-0.0009183426737,
643.9838867,0.00462127896,643.9838867,0.0002421789686,643.9838867,-0.0001316360867,643.9838867,-0.0003615799651,643.9838867,-0.001275700633,
642.9957275,0.004484834615,642.9957275,0.0008181973244,642.9957275,-0.0003877022536,642.9957275,0.000311986194,642.9957275,-0.00173771265,
642.0074463,0.005619282834,642.0074463,0.001073211082,642.0074463,0.0002674066927,642.0074463,0.0008763470105,642.0074463,-0.0008068921743,
640.9821167,0.005816682708,640.9821167,0.001526041306,640.9821167,0.000622641237,640.9821167,0.001221618615,640.9821167,-0.0006958266022,
639.9931641,0.006553329993,639.9931641,0.002030731644,639.9931641,0.0007630116306,639.9931641,0.002135189483,639.9931641,-0.0007015640149,
639.0039673,0.006895256229,639.0039673,0.002288097981,639.0039673,0.0007044104277,639.0039673,0.002910851268,639.0039673,-0.0005650853273,
638.0145264,0.007290939335,638.0145264,0.002210036851,638.0145264,0.001556045958,638.0145264,0.003361793933,638.0145264,-0.0006398954429,
636.9879761,0.007734228391,636.9879761,0.003123501316,636.9879761,0.001512195799,636.9879761,0.004334497266,636.9879761,-0.0004113919858,
635.9979858,0.008428185247,635.9979858,0.003450681921,635.9979858,0.002197002061,635.9979858,0.00455080159,635.9979858,-0.0002710967674,
635.0075684,0.009336983785,635.0075684,0.003648847109,635.0075684,0.002113806782,635.0075684,0.004396571312,635.0075684,-4.001786147E-005,
634.0169678,0.009985403158,634.0169678,0.004354211502,634.0169678,0.002671633847,634.0169678,0.005301837344,634.0169678,9.741982649E-005,
632.9894409,0.01092449203,632.9894409,0.005135055166,632.9894409,0.003105459269,632.9894409,0.005213382188,632.9894409,0.0003281768295,
631.9981689,0.01212022733,631.9981689,0.005668349098,631.9981689,0.003739987034,631.9981689,0.005985065363,631.9981689,-0.0001687954791,
631.0067139,0.01336285379,631.0067139,0.007183181588,631.0067139,0.004820266739,631.0067139,0.006726336665,631.0067139,0.0005699427566,
630.0149536,0.014629554,630.0149536,0.007832792588,630.0149536,0.005176338833,630.0149536,0.006830720231,630.0149536,0.0004573351471,
628.9862061,0.01714708284,628.9862061,0.009543092921,628.9862061,0.006750444882,628.9862061,0.008100873791,628.9862061,0.001425417722,
627.9938965,0.01909884624,627.9938965,0.01088093314,627.9938965,0.007827784866,627.9938965,0.008413959295,627.9938965,0.001594937989,
627.0013428,0.0217545256,627.0013428,0.01286954712,627.0013428,0.009287157096,627.0013428,0.009158888832,627.0013428,0.002177203307,
626.0084229,0.02409768105,626.0084229,0.01482745074,626.0084229,0.01057168748,626.0084229,0.009897366166,626.0084229,0.002656918252,
625.0153198,0.02795412391,625.0153198,0.0172899887,625.0153198,0.01266867574,625.0153198,0.0112083545,625.0153198,0.003688501427,
623.9851074,0.03108986095,623.9851074,0.01982007734,623.9851074,0.01471204963,623.9851074,0.01165805571,623.9851074,0.004305502865,
622.991394,0.03486169502,622.991394,0.02242329344,622.991394,0.01697157137,622.991394,0.01271300111,622.991394,0.004914192483,
621.9974365,0.03933500126,621.9974365,0.02594658174,621.9974365,0.01944998652,621.9974365,0.01368782483,621.9974365,0.005769987125,
621.0032349,0.04410821944,621.0032349,0.02951140516,621.0032349,0.02174513601,621.0032349,0.01508007944,621.0032349,0.006539717317,
620.008667,0.04846716672,620.008667,0.03277363628,620.008667,0.02456507273,620.008667,0.01684042253,620.008667,0.00732969027,
619.013916,0.05388953909,619.013916,0.03660268337,619.013916,0.0275284946,619.013916,0.01870277524,619.013916,0.008825981058,
617.9819946,0.05898956954,617.9819946,0.04066802934,617.9819946,0.03060984425,617.9819946,0.02043051645,617.9819946,0.009552195668,
616.9866333,0.06501852721,616.9866333,0.04492652416,616.9866333,0.03407939896,616.9866333,0.02309563197,616.9866333,0.01089412533,
615.9910278,0.06930074096,615.9910278,0.04836935177,615.9910278,0.03616962209,615.9910278,0.02451157756,615.9910278,0.01163728908,
614.9951782,0.07499467582,614.9951782,0.05222488195,614.9951782,0.03968502581,614.9951782,0.02676060423,614.9951782,0.01267147437,
613.9989624,0.08090551198,613.9989624,0.05692563206,613.9989624,0.04328611121,613.9989624,0.02905211411,613.9989624,0.0142254997,
613.0025635,0.08623628318,613.0025635,0.06063915417,613.0025635,0.04596135765,613.0025635,0.03102844022,613.0025635,0.01464326214,
612.0058594,0.09087255597,612.0058594,0.06432886422,612.0058594,0.04909624904,612.0058594,0.03274382651,612.0058594,0.01587818377,
611.0089722,0.09563886374,611.0089722,0.06771585345,611.0089722,0.05160276964,611.0089722,0.03463449702,611.0089722,0.01683345251,
610.0116577,0.0995920673,610.0116577,0.07077442855,610.0116577,0.05374013633,610.0116577,0.03634274006,610.0116577,0.01755715348,
609.0142212,0.1037248075,609.0142212,0.07445557415,609.0142212,0.05600431934,609.0142212,0.0380891785,609.0142212,0.01834362559,
608.0164185,0.1078399047,608.0164185,0.07717443258,608.0164185,0.05821770057,608.0164185,0.0390733853,608.0164185,0.01948339492,
607.0183716,0.1111605987,607.0183716,0.07987996191,607.0183716,0.06048651785,607.0183716,0.04100564867,607.0183716,0.01963736303,
605.9831543,0.1141921729,605.9831543,0.08219181001,605.9831543,0.06245027483,605.9831543,0.04211193696,605.9831543,0.0208547283,
604.9846191,0.1164700165,604.9846191,0.08363219351,604.9846191,0.06329199672,604.9846191,0.04259679094,604.9846191,0.02104409784,
603.9857178,0.1192039549,603.9857178,0.08576627821,603.9857178,0.06488366425,603.9857178,0.04383927956,603.9857178,0.02163928188,
602.9866943,0.1210683733,602.9866943,0.08709608018,602.9866943,0.0658833459,602.9866943,0.04452036321,602.9866943,0.02173863165,
601.9872437,0.1229726151,601.9872437,0.0888017714,601.9872437,0.06729573756,601.9872437,0.04557248577,601.9872437,0.0225731004,
600.9876709,0.1247648522,600.9876709,0.08983834833,600.9876709,0.06789895892,600.9876709,0.04631725699,600.9876709,0.02246494591,
599.9877319,0.1260361373,599.9877319,0.09118197858,599.9877319,0.06913328171,599.9877319,0.04736433551,599.9877319,0.022981124,
598.9876099,0.1272996664,598.9876099,0.0920490399,598.9876099,0.06978788227,598.9876099,0.04804039374,598.9876099,0.02322478034,
597.9871826,0.1280228794,597.9871826,0.09201326966,597.9871826,0.07007590681,597.9871826,0.04899206012,597.9871826,0.0230148863,
596.9864502,0.1286651343,596.9864502,0.09273233265,596.9864502,0.0701033473,596.9864502,0.04959021509,596.9864502,0.02304892428,
595.9855347,0.1291687489,595.9855347,0.09342476726,595.9855347,0.07067831606,595.9855347,0.05092263594,595.9855347,0.02323925309,
594.984314,0.1297086626,594.984314,0.09346158057,594.984314,0.07078292966,594.984314,0.05154476315,594.984314,0.02349349111,
593.9829102,0.1296051741,593.9829102,0.09399145097,593.9829102,0.07111644,593.9829102,0.05238255486,593.9829102,0.02385927923,
593.0183105,0.129715845,593.0183105,0.09348289669,593.0183105,0.07067964971,593.0183105,0.05241920799,593.0183105,0.02365913801,
592.0162354,0.1296459287,592.0162354,0.09341856837,592.0162354,0.07126352936,592.0162354,0.05268343538,592.0162354,0.02401986718,
591.0140381,0.1288152337,591.0140381,0.09300004691,591.0140381,0.07074097544,591.0140381,0.0522938408,591.0140381,0.02352904156,
590.0115356,0.1280447096,590.0115356,0.09240326285,590.0115356,0.07000096142,590.0115356,0.051861424,590.0115356,0.02343567647,
589.008728,0.127365455,589.008728,0.09176253527,589.008728,0.06964852661,589.008728,0.05110790581,589.008728,0.0234687347,
588.0057373,0.1258660257,588.0057373,0.09065058082,588.0057373,0.06876756996,588.0057373,0.0500886105,588.0057373,0.02298008651,
587.0024414,0.125071913,587.0024414,0.08993826061,587.0024414,0.06831619889,587.0024414,0.04912030324,587.0024414,0.02293033525,
585.9989624,0.1228833273,585.9989624,0.08899179101,585.9989624,0.06703364849,585.9989624,0.04782772437,585.9989624,0.02210999839,
584.9951172,0.1214524359,584.9951172,0.08735299855,584.9951172,0.06612731516,584.9951172,0.04670665413,584.9951172,0.02214012481,
583.9910889,0.1199450269,583.9910889,0.08616784215,583.9910889,0.06510542333,583.9910889,0.04503904283,583.9910889,0.02182962,
582.9868164,0.1179911718,582.9868164,0.08465831727,582.9868164,0.06459777057,582.9868164,0.04406094551,582.9868164,0.0215021465,
581.9821777,0.1157072783,581.9821777,0.0826902166,581.9821777,0.06280431151,581.9821777,0.04240036011,581.9821777,0.02104502171,
581.0145874,0.1139046773,581.0145874,0.0814762637,581.0145874,0.06190606579,581.0145874,0.04154093564,581.0145874,0.02051379532,
580.0095825,0.1114160642,580.0095825,0.07950334251,580.0095825,0.06048562378,580.0095825,0.04054345191,580.0095825,0.02011987567,
579.0042114,0.1092715487,579.0042114,0.07787051052,579.0042114,0.05937405676,579.0042114,0.03973920271,579.0042114,0.01963557489,
577.9987183,0.1073895916,577.9987183,0.07640462369,577.9987183,0.05815010145,577.9987183,0.03902792931,577.9987183,0.01910093054,
576.9928589,0.1054751948,576.9928589,0.07478810847,576.9928589,0.05697382614,576.9928589,0.03807287291,576.9928589,0.01851626113,
575.9867554,0.1031238809,575.9867554,0.07342416048,575.9867554,0.05567988381,575.9867554,0.03714931756,575.9867554,0.01799108647,
575.0177002,0.1014256552,575.0177002,0.07208926976,575.0177002,0.05487656593,575.0177002,0.03685596585,575.0177002,0.01772837155,
574.0111694,0.09926865995,574.0111694,0.07027123868,574.0111694,0.05368055031,574.0111694,0.03562767431,574.0111694,0.0166312512,
573.0042725,0.09749322385,573.0042725,0.06872592866,573.0042725,0.05242533982,573.0042725,0.03492842987,573.0042725,0.01642890275,
571.9972534,0.09579933435,571.9972534,0.06794878095,571.9972534,0.0516706109,571.9972534,0.03421644866,571.9972534,0.016266983,
570.9899292,0.09390130639,570.9899292,0.06642586738,570.9899292,0.05064566061,570.9899292,0.03371010721,570.9899292,0.01616844721,
569.9823608,0.09224074334,569.9823608,0.06484670192,569.9823608,0.04914001375,569.9823608,0.03304997459,569.9823608,0.0155976126,
569.0118408,0.09091264009,569.0118408,0.06380715221,569.0118408,0.04890328646,569.0118408,0.03229304031,569.0118408,0.0157591477,
568.0037231,0.08941810578,568.0037231,0.06307902932,568.0037231,0.0479622446,568.0037231,0.03184467182,568.0037231,0.01527810097,
566.9954834,0.08795989305,566.9954834,0.06159419566,566.9954834,0.04688595608,566.9954834,0.03140277416,566.9954834,0.01532717142,
565.9868774,0.08634032309,565.9868774,0.0610313043,565.9868774,0.04614325985,565.9868774,0.03090437315,565.9868774,0.01471558399,
565.0154419,0.08523827791,565.0154419,0.0596421659,565.0154419,0.04520811886,565.0154419,0.03025714494,565.0154419,0.01445754617,
564.0063477,0.0838978067,564.0063477,0.05864873528,564.0063477,0.04461808875,564.0063477,0.02957770973,564.0063477,0.01440383773,
562.9970703,0.08229426295,562.9970703,0.05771184713,562.9970703,0.04348769411,562.9970703,0.02910448052,562.9970703,0.01432332769,
561.9875488,0.0810308978,561.9875488,0.056689661,561.9875488,0.04273575544,561.9875488,0.02856660075,561.9875488,0.01427915972,
561.0151367,0.07993301749,561.0151367,0.05562788993,561.0151367,0.04256561399,561.0151367,0.02815467864,561.0151367,0.01441911794,
560.005127,0.07861984521,560.005127,0.0547834076,560.005127,0.04129023105,560.005127,0.02773362771,560.005127,0.01426075492,
558.994812,0.07682524621,558.994812,0.05378756672,558.994812,0.04054760188,558.994812,0.02694904059,558.994812,0.01406210102,
557.9842529,0.07545939088,557.9842529,0.052582331,557.9842529,0.03967107087,557.9842529,0.02617359534,557.9842529,0.01342284121,
557.0109253,0.0741025731,557.0109253,0.05149171501,557.0109253,0.03894640505,557.0109253,0.02580950782,557.0109253,0.01288831886,
555.999939,0.07261454314,555.999939,0.05061229691,555.999939,0.03828070313,555.999939,0.0253747236,555.999939,0.01256258693,
554.9887085,0.07139071077,554.9887085,0.04954074323,554.9887085,0.03719579056,554.9887085,0.02477694862,554.9887085,0.01214325242,
554.0147095,0.06981614977,554.0147095,0.0482619293,554.0147095,0.03627435118,554.0147095,0.0241806265,554.0147095,0.01159934793,
553.0029297,0.06877866387,553.0029297,0.04738460481,553.0029297,0.03581834212,553.0029297,0.02387864143,553.0029297,0.01142914686,
551.9909668,0.06727615744,551.9909668,0.04636261985,551.9909668,0.03511954844,551.9909668,0.02306650393,551.9909668,0.01090675965,
551.0162354,0.06564622372,551.0162354,0.04538688809,551.0162354,0.03421538323,551.0162354,0.02268054523,551.0162354,0.01060123648,
550.0038452,0.06452469528,550.0038452,0.04441600665,550.0038452,0.03381634131,550.0038452,0.02245534956,550.0038452,0.01037222147,
548.9910889,0.06274125725,548.9910889,0.04290753976,548.9910889,0.03228336573,548.9910889,0.02140864357,548.9910889,0.009323363192,
548.015686,0.06136972085,548.015686,0.04217816889,548.015686,0.0320045054,548.015686,0.02111252025,548.015686,0.009294218384,
547.0025635,0.06002779678,547.0025635,0.04102547839,547.0025635,0.03098437376,547.0025635,0.0202990789,547.0025635,0.009054843336,
545.9891968,0.05869875103,545.9891968,0.03977809474,545.9891968,0.03043572232,545.9891968,0.02009563707,545.9891968,0.008706986904,
545.0130615,0.05698350817,545.0130615,0.03880236298,545.0130615,0.02922407538,545.0130615,0.01931727491,545.0130615,0.008341017179,
543.9992065,0.05586984754,543.9992065,0.03784816712,543.9992065,0.02852988802,543.9992065,0.01871504635,543.9992065,0.008130360395,
542.9850464,0.05442974716,542.9850464,0.03674092516,542.9850464,0.02771111205,542.9850464,0.01838456467,542.9850464,0.007860284299,
542.0083008,0.05328271911,542.0083008,0.0357968919,542.0083008,0.02689781412,542.0083008,0.01790923439,542.0083008,0.007610211615,
540.9937134,0.05204806104,540.9937134,0.03470958397,540.9937134,0.02640994266,540.9937134,0.01744595729,540.9937134,0.007625570055,
540.0164795,0.05020238459,540.0164795,0.03357537091,540.0164795,0.02525541559,540.0164795,0.01687613316,540.0164795,0.007316659205,
539.0015259,0.0487687923,539.0015259,0.03242260963,539.0015259,0.02454860881,539.0015259,0.01620845683,539.0015259,0.007315763738,
537.986145,0.04733541235,537.986145,0.03147763759,537.986145,0.02374735847,537.986145,0.01573101804,537.986145,0.007119444665,
537.0082397,0.04622410238,537.0082397,0.03029919416,537.0082397,0.02291688323,537.0082397,0.01501967572,537.0082397,0.007093210705,
535.9924927,0.0446282737,535.9924927,0.02930850536,535.9924927,0.02239023149,535.9924927,0.01461445447,535.9924927,0.006929868832,
535.0141602,0.04328531027,535.0141602,0.02842709422,535.0141602,0.021327205,535.0141602,0.01414956897,535.0141602,0.006692897063,
533.9979858,0.04202475399,533.9979858,0.02728952467,533.9979858,0.02077192813,533.9979858,0.01351239718,533.9979858,0.006330379285,
532.9815674,0.04078112915,532.9815674,0.02630927227,532.9815674,0.01983893663,532.9815674,0.01300331671,532.9815674,0.005903292913,
532.0025635,0.03944114596,532.0025635,0.02545234002,532.0025635,0.0192842856,532.0025635,0.01264732797,532.0025635,0.005922894925,
530.9855957,0.03823710978,530.9855957,0.02434768528,530.9855957,0.01845000312,530.9855957,0.01183092594,530.9855957,0.005384099204,
530.0061646,0.03675487265,530.0061646,0.02352926135,530.0061646,0.01778125204,530.0061646,0.01164965332,530.0061646,0.005297566298,
528.9887695,0.03583405539,528.9887695,0.02262300253,528.9887695,0.01711363904,528.9887695,0.0110178357,528.9887695,0.004508714657,
528.0089722,0.03458902985,528.0089722,0.02182943001,528.0089722,0.01648460887,528.0089722,0.01061749645,528.0089722,0.004246212542,
526.9910889,0.03375196084,526.9910889,0.02107029222,526.9910889,0.01578322612,526.9910889,0.01035594381,526.9910889,0.004129616544,
526.0107422,0.03263710067,526.0107422,0.02032848261,526.0107422,0.01526327338,526.0107422,0.009852427058,526.0107422,0.003619089257,
524.9924927,0.03167384118,524.9924927,0.01952148788,524.9924927,0.01480152365,524.9924927,0.00944247283,524.9924927,0.003375750734,
524.0117188,0.03067345731,524.0117188,0.01894493401,524.0117188,0.01424783468,524.0117188,0.009218853898,524.0117188,0.003148662392,
522.992981,0.02985329367,522.992981,0.01809921116,522.992981,0.0137282731,522.992981,0.008674292825,522.992981,0.003130228026,
522.0117798,0.02881684154,522.0117798,0.01734777354,522.0117798,0.01298283227,522.0117798,0.008485013619,522.0117798,0.002654417884,
520.9926758,0.02785946988,520.9926758,0.01659668982,520.9926758,0.01261593495,520.9926758,0.007924103178,520.9926758,0.002384314546,
520.0110474,0.02700688504,520.0110474,0.01615329459,520.0110474,0.01194689516,520.0110474,0.00760705024,520.0110474,0.002237720881,
518.991394,0.02604898252,518.991394,0.01555398572,518.991394,0.01160719153,518.991394,0.007273802999,518.991394,0.001996299252,
518.0092773,0.02534382232,518.0092773,0.01485627238,518.0092773,0.01106759533,518.0092773,0.006869298872,518.0092773,0.001944864052,
516.9892578,0.02469490469,516.9892578,0.01427362207,516.9892578,0.01063015033,516.9892578,0.006608783267,516.9892578,0.001655166619,
516.0067749,0.02392773703,516.0067749,0.0137488991,516.0067749,0.01026181411,516.0067749,0.006300226785,516.0067749,0.001631339197,
514.9862671,0.02302255668,514.9862671,0.01318819821,514.9862671,0.009663268924,514.9862671,0.00615894841,514.9862671,0.001371998573,
514.0032959,0.02278425358,514.0032959,0.01278273575,514.0032959,0.009606286883,514.0032959,0.005877866875,514.0032959,0.001341097872,
512.9824219,0.02185406536,512.9824219,0.01211154927,512.9824219,0.009062587284,512.9824219,0.005448420998,512.9824219,0.001042435528,
511.999054,0.0211106725,511.999054,0.01165627409,511.999054,0.008572843857,511.999054,0.005217757076,511.999054,0.00103392452,
511.0154724,0.02056557871,511.0154724,0.01119587012,511.0154724,0.008199390024,511.0154724,0.004976140335,511.0154724,0.000748931081,
509.9938354,0.01993565261,509.9938354,0.01075646561,509.9938354,0.007832291536,509.9938354,0.004451253451,509.9938354,0.0005197128048,
509.0098267,0.01946823299,509.0098267,0.01046252903,509.0098267,0.007812366355,509.0098267,0.004537591711,509.0098267,0.0006298997905,
507.9878235,0.01853854768,507.9878235,0.009990992025,507.9878235,0.007249664981,507.9878235,0.004098544829,507.9878235,0.0005728458054,
507.0033875,0.01825379767,507.0033875,0.009341083467,507.0033875,0.006903383415,507.0033875,0.003981021699,507.0033875,0.0002309642441,
506.0187988,0.01750427485,506.0187988,0.008780968376,506.0187988,0.006504164077,506.0187988,0.003302084748,506.0187988,-5.694875654E-006,
504.9961548,0.01708924398,504.9961548,0.008563682437,504.9961548,0.006153618451,504.9961548,0.003156458493,504.9961548,0.0001792714465,
504.0110779,0.01655939035,504.0110779,0.008155760355,504.0110779,0.005921110511,504.0110779,0.003323578043,504.0110779,0.0001002161443,
502.9879761,0.01629737951,502.9879761,0.007986007258,502.9879761,0.005943914875,502.9879761,0.002958778525,502.9879761,0.0001444936206,
502.0024414,0.0157109946,502.0024414,0.007617271505,502.0024414,0.005421527196,502.0024414,0.002730527194,502.0024414,0.0001152855184,
501.0167847,0.01521833893,501.0167847,0.007426030003,501.0167847,0.005321543198,501.0167847,0.002386032371,501.0167847,-7.248065117E-007,
499.993103,0.0147532355,499.993103,0.006884657312,499.993103,0.004934666213,499.993103,0.002571161138,499.993103,-2.184720688E-005,
499.006958,0.01440707594,499.006958,0.006632412318,499.006958,0.004612226505,499.006958,0.00235802657,499.006958,-0.000228047269,
497.9828186,0.01398136001,497.9828186,0.006238877773,497.9828186,0.004454156384,497.9828186,0.002068859991,497.9828186,-0.0002495725639,
496.9962769,0.01364043541,496.9962769,0.005950895604,496.9962769,0.00426558312,496.9962769,0.001966602402,496.9962769,-0.0002342048538,
496.009613,0.01342409663,496.009613,0.005866741762,496.009613,0.004314810038,496.009613,0.002053410513,496.009613,-0.0001126928837,
494.9848022,0.01270764321,494.9848022,0.005526699126,494.9848022,0.003630600637,494.9848022,0.001592080109,494.9848022,-0.0004318737774,
493.9976501,0.01234097779,493.9976501,0.00502859056,493.9976501,0.003338081297,493.9976501,0.001355846878,493.9976501,-0.0005273909774,
493.0103455,0.01187583059,493.0103455,0.0049026208,493.0103455,0.003245200263,493.0103455,0.001239322941,493.0103455,-0.000556915882,
491.9848633,0.01179653313,491.9848633,0.0047332705,491.9848633,0.003233646741,491.9848633,0.001161320368,491.9848633,-0.0003607523104,
490.9971619,0.01154968701,490.9971619,0.004398768302,490.9971619,0.002959403908,490.9971619,0.001133159851,490.9971619,-0.0004983295221,
490.0092773,0.01121467631,490.0092773,0.004061387852,490.0092773,0.002717216266,490.0092773,0.0009954458801,490.0092773,-0.0005566573818,
488.9831543,0.01086811256,488.9831543,0.003980028909,488.9831543,0.0026137901,488.9831543,0.0009288492147,488.9831543,-0.0004346666683,
487.9948425,0.01069233473,487.9948425,0.003477297025,487.9948425,0.002438222989,487.9948425,0.0007273832452,487.9948425,-0.0005136361578,
487.0063171,0.01031906903,487.0063171,0.003305710154,487.0063171,0.002307199175,487.0063171,0.0005492591299,487.0063171,-0.0007971253362,
486.0176697,0.009924856015,486.0176697,0.003209941322,486.0176697,0.002045035828,486.0176697,0.0005942045245,486.0176697,-0.0007788313087,
484.9906921,0.009689923376,484.9906921,0.003204178065,484.9906921,0.002018560423,484.9906921,0.00049263041,484.9906921,-0.0007629654719,
484.0015869,0.009724441916,484.0015869,0.002914708341,484.0015869,0.00179334986,484.0015869,0.0004069627321,484.0015869,-0.00106509123,
483.0122375,0.009639659896,483.0122375,0.002821761183,483.0122375,0.001771464245,483.0122375,0.0002738822368,483.0122375,-0.001030539279,
481.9846802,0.009419378825,481.9846802,0.002630535746,481.9846802,0.001662078663,481.9846802,0.0003051992389,481.9846802,-0.0008078223327,
480.9949646,0.009158096276,480.9949646,0.002413649578,480.9949646,0.00141427631,480.9949646,3.114193532E-005,480.9949646,-0.001191706629,
480.0050354,0.009060367011,480.0050354,0.002451785607,480.0050354,0.001481025363,480.0050354,0.0003224258544,480.0050354,-0.0009965010686,
479.0149231,0.008860220201,479.0149231,0.002239099937,479.0149231,0.00149357121,479.0149231,0.0001442864741,479.0149231,-0.00115809415,
477.9865417,0.008409446105,477.9865417,0.001720549422,477.9865417,0.001028034487,477.9865417,-0.0001869599801,477.9865417,-0.001284011407,
476.9960938,0.008471657522,476.9960938,0.001760210027,476.9960938,0.00106690533,476.9960938,2.177064562E-005,476.9960938,-0.001459016465,
476.0054016,0.00812036451,476.0054016,0.001702409587,476.0054016,0.001082968432,476.0054016,-0.0001066888581,476.0054016,-0.001361123403,
475.0144958,0.007751567755,475.0144958,0.001471311087,475.0144958,0.0007281870348,475.0144958,-0.000392667891,475.0144958,-0.001722706947,
473.9852905,0.007653812412,473.9852905,0.001325155026,473.9852905,0.0005923641147,473.9852905,-0.0002902400156,473.9852905,-0.001795874326,
472.9940186,0.007727297954,472.9940186,0.001384203671,472.9940186,0.0007030103006,472.9940186,-0.000222614035,472.9940186,-0.001413607621,
472.0025024,0.007761871442,472.0025024,0.001291713328,472.0025024,0.0006743090926,472.0025024,-0.0002824793337,472.0025024,-0.001509373542,
471.0108948,0.007418867666,471.0108948,0.001094490639,471.0108948,0.0004946517874,471.0108948,-0.0002710450208,471.0108948,-0.001833922695,
470.019043,0.007380398456,470.019043,0.00101319293,470.019043,0.0003366480232,470.019043,-0.0004373044067,470.019043,-0.001539089601,
468.9887695,0.007197130006,468.9887695,0.0009926178027,468.9887695,0.0003329175815,468.9887695,-0.0004314082908,468.9887695,-0.001652363804,
467.996521,0.007128338795,467.996521,0.0007313245442,467.996521,0.0004072736483,467.996521,-0.0005096544046,467.996521,-0.001551419147,
467.0041504,0.006988921668,467.0041504,0.0004596932558,467.0041504,0.0001612995256,467.0041504,-0.0008370181313,467.0041504,-0.001757306978,
466.0115051,0.006859489717,466.0115051,0.0006163160433,466.0115051,0.0001784427441,466.0115051,-0.0007088520215,466.0115051,-0.001709144562,
465.0186462,0.00674710609,465.0186462,0.0005887610605,465.0186462,2.707756721E-005,465.0186462,-0.0006484251353,465.0186462,-0.001659326488,
463.9874878,0.006910352968,463.9874878,0.0004541219096,463.9874878,-9.87178646E-005,463.9874878,-0.0006743751001,463.9874878,-0.001677170862,
462.9942322,0.006696314551,462.9942322,0.0003846804902,462.9942322,-0.0002993974194,462.9942322,-0.0007800199091,462.9942322,-0.001647154684,
462.000885,0.006672208663,462.000885,0.0005071950727,462.000885,-0.0003130038385,462.000885,-0.0007513887831,462.000885,-0.001746530179,
461.0072937,0.00644927565,461.0072937,0.0002861082903,461.0072937,-0.0002948446199,461.0072937,-0.000821412832,461.0072937,-0.00170986657,
460.0135498,0.006571095437,460.0135498,0.0002706444648,460.0135498,-0.0004376664292,460.0135498,-0.0009174127481,460.0135498,-0.001779581537,
458.9813843,0.006522321142,458.9813843,8.305013034E-005,458.9813843,-0.0004274257808,458.9813843,-0.0009574494325,458.9813843,-0.001874493551,
457.9872131,0.006469637621,457.9872131,0.0002678211313,457.9872131,-0.0002771502768,457.9872131,-0.0008742722566,457.9872131,-0.00177855033,
456.9928284,0.006533095147,456.9928284,0.000160988784,456.9928284,-0.0004624912108,456.9928284,-0.0009532134864,456.9928284,-0.001932224608,
455.9983521,0.006326649338,455.9983521,0.0001685503521,455.9983521,-0.0006021042354,455.9983521,-0.0009601873462,455.9983521,-0.001898411661,
455.0036621,0.006349947769,455.0036621,1.602371049E-005,455.0036621,-0.0003626662656,455.0036621,-0.001003319281,455.0036621,-0.001887226012,
454.0087585,0.006132063456,454.0087585,-0.0001087074634,454.0087585,-0.0006823355216,454.0087585,-0.0009530068492,454.0087585,-0.002049312461,
453.0136719,0.006264167372,453.0136719,-0.0001103119866,453.0136719,-0.0007287512999,453.0136719,-0.00102413469,453.0136719,-0.001997987274,
452.0184326,0.006112688221,452.0184326,-0.0001707620395,452.0184326,-0.0007712343941,452.0184326,-0.001167749637,452.0184326,-0.002062606625,
450.9846497,0.006191139109,450.9846497,-5.653127664E-005,450.9846497,-0.0006737030926,450.9846497,-0.0009059434524,450.9846497,-0.001888669329,
449.9889832,0.006170369685,449.9889832,-0.0001603598503,449.9889832,-0.0008650235832,449.9889832,-0.00101230666,449.9889832,-0.002097797813,
448.9931946,0.006085280795,448.9931946,-0.0001849934924,448.9931946,-0.0006983076455,448.9931946,-0.00101902138,448.9931946,-0.001895834343,
447.9971924,0.006281737238,447.9971924,-0.0002165080368,447.9971924,-0.000711384695,447.9971924,-0.001056414796,447.9971924,-0.002087699249,
447.0010376,0.006150179077,447.0010376,-0.0002104536979,447.0010376,-0.0008947321912,447.0010376,-0.001123136492,447.0010376,-0.001988917124,
446.0046387,0.006210622378,446.0046387,-0.0003689253936,446.0046387,-0.0009532134864,446.0046387,-0.001117662759,446.0046387,-0.002154520247,
445.0080872,0.006311231758,445.0080872,-0.0001847347448,445.0080872,-0.0008230147068,445.0080872,-0.001179315266,445.0080872,-0.002088420559,
444.0113831,0.00611491967,444.0113831,-0.0003275410272,444.0113831,-0.0009355975781,444.0113831,-0.001084199524,444.0113831,-0.002123197541,
443.0144958,0.006237171125,443.0144958,-0.0003873918904,443.0144958,-0.0009551764815,443.0144958,-0.001079086796,443.0144958,-0.00223503192,
442.0173645,0.005994828884,442.0173645,-0.0004600087996,442.0173645,-0.0009618920158,442.0173645,-0.001301096985,442.0173645,-0.002272938844,
440.98172,0.006272807717,440.98172,-0.000449354935,440.98172,-0.0008670386742,440.98172,-0.001060753013,440.98172,-0.002169202082,
439.984314,0.006284468342,439.984314,-0.0004132540198,439.984314,-0.0009000537102,439.984314,-0.0009585342486,439.984314,-0.002246929798,
438.9866333,0.00627123192,438.9866333,-0.0004144436389,438.9866333,-0.0009659212665,438.9866333,-0.001083734678,438.9866333,-0.00199092715,
437.9888306,0.006086803507,437.9888306,-0.0005955382367,437.9888306,-0.001057447633,437.9888306,-0.001173325931,437.9888306,-0.002297349973,
436.9908447,0.006227507256,436.9908447,-0.0003913230321,436.9908447,-0.001140744775,436.9908447,-0.001124995411,436.9908447,-0.002017930616,
435.9926758,0.006316484418,435.9926758,-0.0004120126541,435.9926758,-0.001099743764,435.9926758,-0.001049700659,435.9926758,-0.002032617107,
434.9943542,0.006481960882,434.9943542,-0.0003520100145,434.9943542,-0.0009975858266,434.9943542,-0.0009446381009,434.9943542,-0.002047405811,
433.9957581,0.006350578275,433.9957581,-0.0004390111426,433.9957581,-0.0009806948947,433.9957581,-0.001015250804,433.9957581,-0.002069562674,
432.9971008,0.006532412022,432.9971008,-0.0004340460291,432.9971008,-0.0009134863503,432.9971008,-0.000968865701,432.9971008,-0.002014220227,
431.99823,0.006410997361,431.99823,-0.0002636979334,431.99823,-0.001037821756,431.99823,-0.0008751506102,431.99823,-0.00204539625,
430.9991455,0.006352521945,430.9991455,-0.0003347835736,430.9991455,-0.00108791783,430.9991455,-0.0009130730177,430.9991455,-0.002098158468,
429.9999084,0.00650868332,429.9999084,-0.0004043059016,429.9999084,-0.001118592336,429.9999084,-0.0009729465819,429.9999084,-0.002143135294,
429.0005493,0.006501956843,429.0005493,-0.0002571268415,429.0005493,-0.0009742379771,429.0005493,-0.0009581210325,429.0005493,-0.002015096368,
428.000946,0.006795589812,428.000946,-0.0002312554279,428.000946,-0.001016955357,428.000946,-0.0007733015809,428.000946,-0.002026278758,
427.0011597,0.00665683113,427.0011597,-0.0001664666343,427.0011597,-0.0008963338332,427.0011597,-0.0007415172877,427.0011597,-0.00180567021,
426.0012817,0.006538797636,426.0012817,-0.0003292482288,426.0012817,-0.0008756672614,426.0012817,-0.0009319296805,426.0012817,-0.002132110298,
425.0011902,0.006726362742,425.0011902,-0.000211902603,425.0011902,-0.000876545615,425.0011902,-0.0007648260216,425.0011902,-0.00200561434,
424.000885,0.006863065995,424.000885,-4.436628296E-005,424.000885,-0.0008345378446,424.000885,-0.0007654978544,424.000885,-0.001962787937,
423.0004578,0.006940021645,423.0004578,-1.320164301E-005,423.0004578,-0.0007866347441,423.0004578,-0.0008315408486,423.0004578,-0.002066110261,
421.9998474,0.00713033881,421.9998474,2.428171683E-005,421.9998474,-0.0005895926151,421.9998474,-0.0007397083682,421.9998474,-0.002098570578,
420.9990234,0.007272907998,420.9990234,-2.14330521E-005,420.9990234,-0.0006045341142,420.9990234,-0.0006099108723,420.9990234,-0.001997162821,
419.9980469,0.007274513599,419.9980469,0.0001980987145,419.9980469,-0.0005847326247,419.9980469,-0.000541197136,419.9980469,-0.00204276829,
418.9969482,0.007284463849,418.9969482,0.0002677175216,418.9969482,-0.0004930548021,418.9969482,-0.0004259258858,418.9969482,-0.001861915458,
417.995636,0.007408545818,417.995636,0.0002857974614,417.995636,-0.00068238721,417.995636,-0.000628160371,417.995636,-0.001960674766,
416.9941101,0.007192945573,416.9941101,4.910845746E-005,416.9941101,-0.0007143308758,416.9941101,-0.0006565928343,416.9941101,-0.001713218517,
415.9924927,0.007708984893,415.9924927,0.0003628657432,415.9924927,-0.0005180832813,415.9924927,-0.0003594073351,415.9924927,-0.001393997693,
414.9907227,0.007624437101,414.9907227,0.0002869371965,414.9907227,-0.0005371639272,414.9907227,-0.0003563035862,414.9907227,-0.001378412475,
413.988739,0.007802403998,413.988739,0.0001249695488,413.988739,-0.000390443689,413.988739,-0.0001665183954,413.988739,-0.001021913718,
412.9865417,0.007744848263,412.9865417,0.0002700746118,412.9865417,-0.0004454760638,412.9865417,-0.0001559090888,412.9865417,-0.001069997437,
411.9842224,0.007832134143,411.9842224,0.0003865459294,411.9842224,-0.0002422250982,411.9842224,-0.0001575651841,411.9842224,-0.0007800715975,
410.981781,0.007872119546,410.981781,0.0003894477559,410.981781,-0.0003008977801,410.981781,1.359034559E-005,410.981781,-0.0009187559481,
410.0176392,0.007917854935,410.0176392,0.0001844508079,410.0176392,-0.0004444416845,410.0176392,1.89748298E-005,410.0176392,-0.001057860907,
409.0148621,0.007957216352,409.0148621,0.0002004554262,409.0148621,-0.0004145470739,409.0148621,0.0001078284404,409.0148621,-0.0009962428594,
408.0118408,0.007873859257,408.0118408,7.098512287E-005,408.0118408,-0.0004230294726,408.0118408,-9.483583563E-005,408.0118408,-0.001428211224,
407.0086975,0.00804048311,407.0086975,0.0001342394971,407.0086975,-0.0004955887562,407.0086975,-4.845582953E-005,407.0086975,-0.001511643524,
406.0054321,0.008156605065,406.0054321,0.0002490944462,406.0054321,-0.0001574099297,406.0054321,-9.008223969E-006,406.0054321,-0.001701770234,
405.0019226,0.008203320205,405.0019226,-5.337358743E-005,405.0019226,-0.0004764545301,405.0019226,-1.827510823E-005,405.0019226,-0.001715435879,
403.9982605,0.008353049867,403.9982605,0.0001170721298,403.9982605,-0.0003283687693,403.9982605,-9.043615864E-005,403.9982605,-0.001885421807,
402.9944763,0.008360333741,402.9944763,9.596988821E-005,402.9944763,-0.0002621457388,402.9944763,-7.268171612E-005,402.9944763,-0.001907741418,
401.990509,0.008403455839,401.990509,0.0001321161835,401.990509,-0.0003046744969,401.990509,3.52050597E-006,401.990509,-0.00207852805,
400.9863586,0.008373370394,400.9863586,-9.079848678E-005,400.9863586,-0.0003002252197,400.9863586,-6.087953079E-005,400.9863586,-0.002043128945,
399.9820862,0.00851988513,399.9820862,1.162295575E-005,399.9820862,-0.0003001734731,399.9820862,-0.0001721075823,399.9820862,-0.001991030062,

sample21,
sample21
Collection Time: 18/12/2022 4:47:09 PM
Operator Name  :
Scan Version 5.0.0.999
Parameter List :
Instrument  Cary 60
Instrument Version  2.00
Start (nm)  700.0
Stop (nm)  400.0
X Mode  Nanometers
Y Mode  Abs
UV-Vis Scan Rate (nm/min)  600.000
UV-Vis Data Interval (nm)  1.00
UV-Vis Ave. Time (sec)  0.1000
Beam Mode  Dual Beam
Baseline Correction  On
Baseline Type  Zero/baseline correction
Baseline File Name  C:\Users\lnano\Desktop\UV-Vis DATA HERE\Adrea\RB\rb_meoh.BSW
Baseline Std Ref File Name
Cycle Mode  Off
Method Log     :
Method Name    :
Date/Time stamp: 18/12/2022 2:47:56 PM
Method Modifications:
UVVIS SAT Changed: 18/12/2022 2:48:14 PM, Old:0.0125, New:0.1000
Common SAT Changed: 18/12/2022 2:48:14 PM, Old:0.0125, New:0.1000
Common Interval nm Changed: 18/12/2022 2:48:25 PM, Old:     5.00, New:     1.00
Baseline Correction Changed: 18/12/2022 2:48:25 PM, Old:0, New:2
Storage Changed: 18/12/2022 2:48:25 PM, Old:1, New:0
X Start nm Changed: 18/12/2022 3:02:57 PM, Old:  800.0, New:  650.0
X Stop nm Changed: 18/12/2022 3:02:57 PM, Old:  200.0, New:  400.0
Saved as C:\Users\lnano\Desktop\UV-Vis DATA HERE\Adrea\R6G\r6g_etoh.BSWX Start nm Changed: 18/12/2022 4:05:54 PM, Old:  650.0, New:  800.0
X Stop nm Changed: 18/12/2022 4:05:54 PM, Old:  400.0, New:  200.0
X Start nm Changed: 18/12/2022 4:16:37 PM, Old:  800.0, New:  450.0
X Stop nm Changed: 18/12/2022 4:16:37 PM, Old:  200.0, New:  300.0
Saved as C:\Users\lnano\Desktop\UV-Vis DATA HERE\Adrea\RB\rb_meoh.BSW
X Start nm Changed: 18/12/2022 4:43:53 PM, Old:  450.0, New:  800.0
X Start nm Changed: 18/12/2022 4:45:13 PM, Old:  800.0, New:  700.0
X Stop nm Changed: 18/12/2022 4:45:13 PM, Old:  300.0, New:  400.0
End Method Modifications
<Current Wavelength> , 406.0

sample22,
sample22
Collection Time: 18/12/2022 4:52:56 PM
Operator Name  :
Scan Version 5.0.0.999
Parameter List :
Instrument  Cary 60
Instrument Version  2.00
Start (nm)  700.0
Stop (nm)  400.0
X Mode  Nanometers
Y Mode  Abs
UV-Vis Scan Rate (nm/min)  600.000
UV-Vis Data Interval (nm)  1.00
UV-Vis Ave. Time (sec)  0.1000
Beam Mode  Dual Beam
Baseline Correction  On
Baseline Type  Zero/baseline correction
Baseline File Name  C:\Users\lnano\Desktop\UV-Vis DATA HERE\Adrea\RB\rb_meoh.BSW
Baseline Std Ref File Name
Cycle Mode  Off
Method Log     :
Method Name    :
Date/Time stamp: 18/12/2022 2:47:56 PM
Method Modifications:
UVVIS SAT Changed: 18/12/2022 2:48:14 PM, Old:0.0125, New:0.1000
Common SAT Changed: 18/12/2022 2:48:14 PM, Old:0.0125, New:0.1000
Common Interval nm Changed: 18/12/2022 2:48:25 PM, Old:     5.00, New:     1.00
Baseline Correction Changed: 18/12/2022 2:48:25 PM, Old:0, New:2
Storage Changed: 18/12/2022 2:48:25 PM, Old:1, New:0
X Start nm Changed: 18/12/2022 3:02:57 PM, Old:  800.0, New:  650.0
X Stop nm Changed: 18/12/2022 3:02:57 PM, Old:  200.0, New:  400.0
Saved as C:\Users\lnano\Desktop\UV-Vis DATA HERE\Adrea\R6G\r6g_etoh.BSWX Start nm Changed: 18/12/2022 4:05:54 PM, Old:  650.0, New:  800.0
X Stop nm Changed: 18/12/2022 4:05:54 PM, Old:  400.0, New:  200.0
X Start nm Changed: 18/12/2022 4:16:37 PM, Old:  800.0, New:  450.0
X Stop nm Changed: 18/12/2022 4:16:37 PM, Old:  200.0, New:  300.0
Saved as C:\Users\lnano\Desktop\UV-Vis DATA HERE\Adrea\RB\rb_meoh.BSW
X Start nm Changed: 18/12/2022 4:43:53 PM, Old:  450.0, New:  800.0
X Start nm Changed: 18/12/2022 4:45:13 PM, Old:  800.0, New:  700.0
X Stop nm Changed: 18/12/2022 4:45:13 PM, Old:  300.0, New:  400.0
End Method Modifications
<Current Wavelength> , 403.0

sample24,
sample24
Collection Time: 18/12/2022 4:56:20 PM
Operator Name  :
Scan Version 5.0.0.999
Parameter List :
Instrument  Cary 60
Instrument Version  2.00
Start (nm)  700.0
Stop (nm)  400.0
X Mode  Nanometers
Y Mode  Abs
UV-Vis Scan Rate (nm/min)  600.000
UV-Vis Data Interval (nm)  1.00
UV-Vis Ave. Time (sec)  0.1000
Beam Mode  Dual Beam
Baseline Correction  On
Baseline Type  Zero/baseline correction
Baseline File Name  C:\Users\lnano\Desktop\UV-Vis DATA HERE\Adrea\RB\rb_meoh.BSW
Baseline Std Ref File Name
Cycle Mode  Off
Method Log     :
Method Name    :
Date/Time stamp: 18/12/2022 2:47:56 PM
Method Modifications:
UVVIS SAT Changed: 18/12/2022 2:48:14 PM, Old:0.0125, New:0.1000
Common SAT Changed: 18/12/2022 2:48:14 PM, Old:0.0125, New:0.1000
Common Interval nm Changed: 18/12/2022 2:48:25 PM, Old:     5.00, New:     1.00
Baseline Correction Changed: 18/12/2022 2:48:25 PM, Old:0, New:2
Storage Changed: 18/12/2022 2:48:25 PM, Old:1, New:0
X Start nm Changed: 18/12/2022 3:02:57 PM, Old:  800.0, New:  650.0
X Stop nm Changed: 18/12/2022 3:02:57 PM, Old:  200.0, New:  400.0
Saved as C:\Users\lnano\Desktop\UV-Vis DATA HERE\Adrea\R6G\r6g_etoh.BSWX Start nm Changed: 18/12/2022 4:05:54 PM, Old:  650.0, New:  800.0
X Stop nm Changed: 18/12/2022 4:05:54 PM, Old:  400.0, New:  200.0
X Start nm Changed: 18/12/2022 4:16:37 PM, Old:  800.0, New:  450.0
X Stop nm Changed: 18/12/2022 4:16:37 PM, Old:  200.0, New:  300.0
Saved as C:\Users\lnano\Desktop\UV-Vis DATA HERE\Adrea\RB\rb_meoh.BSW
X Start nm Changed: 18/12/2022 4:43:53 PM, Old:  450.0, New:  800.0
X Start nm Changed: 18/12/2022 4:45:13 PM, Old:  800.0, New:  700.0
X Stop nm Changed: 18/12/2022 4:45:13 PM, Old:  300.0, New:  400.0
End Method Modifications
<Current Wavelength> , 410.0

sample26,
sample26
Collection Time: 18/12/2022 5:01:04 PM
Operator Name  :
Scan Version 5.0.0.999
Parameter List :
Instrument  Cary 60
Instrument Version  2.00
Start (nm)  700.0
Stop (nm)  400.0
X Mode  Nanometers
Y Mode  Abs
UV-Vis Scan Rate (nm/min)  600.000
UV-Vis Data Interval (nm)  1.00
UV-Vis Ave. Time (sec)  0.1000
Beam Mode  Dual Beam
Baseline Correction  On
Baseline Type  Zero/baseline correction
Baseline File Name  C:\Users\lnano\Desktop\UV-Vis DATA HERE\Adrea\RB\rb_meoh.BSW
Baseline Std Ref File Name
Cycle Mode  Off
Method Log     :
Method Name    :
Date/Time stamp: 18/12/2022 2:47:56 PM
Method Modifications:
UVVIS SAT Changed: 18/12/2022 2:48:14 PM, Old:0.0125, New:0.1000
Common SAT Changed: 18/12/2022 2:48:14 PM, Old:0.0125, New:0.1000
Common Interval nm Changed: 18/12/2022 2:48:25 PM, Old:     5.00, New:     1.00
Baseline Correction Changed: 18/12/2022 2:48:25 PM, Old:0, New:2
Storage Changed: 18/12/2022 2:48:25 PM, Old:1, New:0
X Start nm Changed: 18/12/2022 3:02:57 PM, Old:  800.0, New:  650.0
X Stop nm Changed: 18/12/2022 3:02:57 PM, Old:  200.0, New:  400.0
Saved as C:\Users\lnano\Desktop\UV-Vis DATA HERE\Adrea\R6G\r6g_etoh.BSWX Start nm Changed: 18/12/2022 4:05:54 PM, Old:  650.0, New:  800.0
X Stop nm Changed: 18/12/2022 4:05:54 PM, Old:  400.0, New:  200.0
X Start nm Changed: 18/12/2022 4:16:37 PM, Old:  800.0, New:  450.0
X Stop nm Changed: 18/12/2022 4:16:37 PM, Old:  200.0, New:  300.0
Saved as C:\Users\lnano\Desktop\UV-Vis DATA HERE\Adrea\RB\rb_meoh.BSW
X Start nm Changed: 18/12/2022 4:43:53 PM, Old:  450.0, New:  800.0
X Start nm Changed: 18/12/2022 4:45:13 PM, Old:  800.0, New:  700.0
X Stop nm Changed: 18/12/2022 4:45:13 PM, Old:  300.0, New:  400.0
End Method Modifications
<Current Wavelength> , 404.0

sample27,
sample27
Collection Time: 18/12/2022 5:05:11 PM
Operator Name  :
Scan Version 5.0.0.999
Parameter List :
Instrument  Cary 60
Instrument Version  2.00
Start (nm)  700.0
Stop (nm)  400.0
X Mode  Nanometers
Y Mode  Abs
UV-Vis Scan Rate (nm/min)  600.000
UV-Vis Data Interval (nm)  1.00
UV-Vis Ave. Time (sec)  0.1000
Beam Mode  Dual Beam
Baseline Correction  On
Baseline Type  Zero/baseline correction
Baseline File Name  C:\Users\lnano\Desktop\UV-Vis DATA HERE\Adrea\RB\rb_meoh.BSW
Baseline Std Ref File Name
Cycle Mode  Off
Method Log     :
Method Name    :
Date/Time stamp: 18/12/2022 2:47:56 PM
Method Modifications:
UVVIS SAT Changed: 18/12/2022 2:48:14 PM, Old:0.0125, New:0.1000
Common SAT Changed: 18/12/2022 2:48:14 PM, Old:0.0125, New:0.1000
Common Interval nm Changed: 18/12/2022 2:48:25 PM, Old:     5.00, New:     1.00
Baseline Correction Changed: 18/12/2022 2:48:25 PM, Old:0, New:2
Storage Changed: 18/12/2022 2:48:25 PM, Old:1, New:0
X Start nm Changed: 18/12/2022 3:02:57 PM, Old:  800.0, New:  650.0
X Stop nm Changed: 18/12/2022 3:02:57 PM, Old:  200.0, New:  400.0
Saved as C:\Users\lnano\Desktop\UV-Vis DATA HERE\Adrea\R6G\r6g_etoh.BSWX Start nm Changed: 18/12/2022 4:05:54 PM, Old:  650.0, New:  800.0
X Stop nm Changed: 18/12/2022 4:05:54 PM, Old:  400.0, New:  200.0
X Start nm Changed: 18/12/2022 4:16:37 PM, Old:  800.0, New:  450.0
X Stop nm Changed: 18/12/2022 4:16:37 PM, Old:  200.0, New:  300.0
Saved as C:\Users\lnano\Desktop\UV-Vis DATA HERE\Adrea\RB\rb_meoh.BSW
X Start nm Changed: 18/12/2022 4:43:53 PM, Old:  450.0, New:  800.0
X Start nm Changed: 18/12/2022 4:45:13 PM, Old:  800.0, New:  700.0
X Stop nm Changed: 18/12/2022 4:45:13 PM, Old:  300.0, New:  400.0
End Method Modifications
<Current Wavelength> , 400.0

