Final normalised emission correction curve,
Wavelength (nm),Intensity (a.u.)
220,29.05115151
221,25.85133844
222,22.71669933
223,20.28387154
224,17.86487964
225,16.48255059
226,14.95007632
227,13.78020164
228,12.71312998
229,11.74955561
230,10.89878067
231,10.13086935
232,9.492672752
233,8.860764662
234,8.279207614
235,7.763672827
236,7.341249367
237,6.96186991
238,6.611846873
239,6.285489693
240,5.940675614
241,5.628905807
242,5.3252899
243,5.017516456
244,4.7653321
245,4.52578867
246,4.301247461
247,4.108928458
248,3.938850525
249,3.805490171
250,3.674448195
251,3.559497294
252,3.442928249
253,3.329948828
254,3.223626517
255,3.126674275
256,3.038478891
257,2.957028594
258,2.883359071
259,2.817889939
260,2.750225929
261,2.690542966
262,2.631384522
263,2.576946519
264,2.537414415
265,2.485352962
266,2.437530107
267,2.39825001
268,2.363660551
269,2.331426424
270,2.298402657
271,2.258831929
272,2.215717593
273,2.1740526
274,2.134741509
275,2.099279679
276,2.060152885
277,2.024769732
278,1.994319688
279,1.961312133
280,1.928427006
281,1.896938771
282,1.8668243
283,1.838039845
284,1.81056955
285,1.784360487
286,1.759405385
287,1.735646068
288,1.713074073
289,1.691636948
290,1.671318242
291,1.652074445
292,1.633880283
293,1.61670071
294,1.600502704
295,1.58525837
296,1.570927893
297,1.557489695
298,1.544898358
299,1.533137432
300,1.522158041
301,1.511943852
302,1.502448732
303,1.493651342
304,1.485511749
305,1.478002532
306,1.471089361
307,1.464739811
308,1.458923959
309,1.453605686
310,1.448758169
311,1.444342427
312,1.440334261
313,1.436693498
314,1.433394984
315,1.430400691
316,1.427682605
317,1.425205799
318,1.422939635
319,1.420851212
320,1.418908462
321,1.417079557
322,1.415331594
323,1.413633104
324,1.411951541
325,1.4102546
326,1.408510691
327,1.406686197
328,1.404750838
329,1.402670521
330,1.400414847
331,1.397949961
332,1.39524487
333,1.392267147
334,1.388983534
335,1.385364228
336,1.381373347
337,1.376983951
338,1.3721567
339,1.366868109
340,1.361075861
341,1.354665275
342,1.347343098
343,1.339366105
344,1.330656812
345,1.321488443
346,1.311703765
347,1.301370844
348,1.290592558
349,1.279427916
350,1.26769393
351,1.255142648
352,1.242429838
353,1.229828726
354,1.217573917
355,1.205783784
356,1.194538199
357,1.183931216
358,1.173880225
359,1.164362097
360,1.155048414
361,1.145718994
362,1.136874637
363,1.128533936
364,1.120617264
365,1.113236078
366,1.106236838
367,1.099633849
368,1.093425204
369,1.087470592
370,1.081617548
371,1.075526084
372,1.069679715
373,1.064229954
374,1.05921316
375,1.054703005
376,1.050750867
377,1.04729905
378,1.044353752
379,1.041797314
380,1.03945891
381,1.03719215
382,1.035138178
383,1.03331404
384,1.031621869
385,1.030103503
386,1.028644503
387,1.027236168
388,1.025789924
389,1.024168561
390,1.022317126
391,1.020030219
392,1.017651641
393,1.015257089
394,1.012851093
395,1.010563948
396,1.008445603
397,1.006523834
398,1.004869451
399,1.003421657
400,1.00218987
401,1.001108525
402,1.000348328
403,1
404,1.000040412
405,1.000487803
406,1.001321551
407,1.002522582
408,1.00396227
409,1.005593288
410,1.007342919
411,1.009009462
412,1.01070068
413,1.012382363
414,1.014048548
415,1.015775529
416,1.01748761
417,1.019158682
418,1.020776349
419,1.022341206
420,1.023883533
421,1.025329777
422,1.02683193
423,1.028416098
424,1.030061184
425,1.031816776
426,1.033737591
427,1.035782264
428,1.037894529
429,1.040082731
430,1.042274985
431,1.044364839
432,1.04648378
433,1.048657079
434,1.05089523
435,1.053200971
436,1.055507308
437,1.057819487
438,1.060134884
439,1.062425724
440,1.064631092
441,1.066588624
442,1.068329076
443,1.069839693
444,1.071100925
445,1.072129103
446,1.072900385
447,1.073343366
448,1.073443621
449,1.073226065
450,1.072704049
451,1.07189438
452,1.070920323
453,1.069835759
454,1.068708519
455,1.067631942
456,1.066694959
457,1.065943822
458,1.065430389
459,1.065167295
460,1.06517397
461,1.065384493
462,1.065903768
463,1.06678818
464,1.068036775
465,1.069663741
466,1.071658347
467,1.073986499
468,1.076659405
469,1.079657512
470,1.082971404
471,1.08651239
472,1.090303953
473,1.094332265
474,1.098609724
475,1.103146701
476,1.107914348
477,1.112850437
478,1.117946266
479,1.123152006
480,1.128469922
481,1.133792844
482,1.139175609
483,1.144620244
484,1.150137358
485,1.155727547
486,1.161386043
487,1.167109269
488,1.172895439
489,1.17873549
490,1.184617145
491,1.190484733
492,1.19640692
493,1.202393002
494,1.208481127
495,1.21466152
496,1.220906882
497,1.227210418
498,1.233576301
499,1.239998569
500,1.246466971
501,1.252911889
502,1.25936837
503,1.26585072
504,1.272388502
505,1.278949411
506,1.285558956
507,1.292184595
508,1.298826684
509,1.305471755
510,1.312117778
511,1.318740317
512,1.325400884
513,1.332093757
514,1.33882728
515,1.345586433
516,1.352383495
517,1.359239565
518,1.366164657
519,1.373147923
520,1.380167667
521,1.387209941
522,1.394310152
523,1.401505013
524,1.408792858
525,1.416156282
526,1.423610662
527,1.431094964
528,1.438642924
529,1.446225454
530,1.453843746
531,1.461455721
532,1.469107153
533,1.476762878
534,1.484444947
535,1.492160514
536,1.499937832
537,1.507765694
538,1.515654234
539,1.523604881
540,1.531613702
541,1.539682605
542,1.547855935
543,1.556123202
544,1.564471769
545,1.572910697
546,1.581424487
547,1.590007301
548,1.598679282
549,1.607411464
550,1.616226735
551,1.625102802
552,1.634083297
553,1.643121011
554,1.652270306
555,1.661507576
556,1.670853804
557,1.68026667
558,1.689801606
559,1.699434054
560,1.709146135
561,1.718943688
562,1.728850318
563,1.738818458
564,1.74887553
565,1.759040604
566,1.769302597
567,1.779671519
568,1.790137953
569,1.800717876
570,1.811439657
571,1.822279693
572,1.833244065
573,1.844277101
574,1.855429584
575,1.866643936
576,1.877937921
577,1.889279946
578,1.900730333
579,1.912230669
580,1.923781906
581,1.93538798
582,1.947058665
583,1.958780133
584,1.970597803
585,1.982516561
586,1.994510422
587,2.006590829
588,2.018762311
589,2.031027253
590,2.043395669
591,2.055857783
592,2.068380216
593,2.080935075
594,2.093565273
595,2.106247448
596,2.119015213
597,2.131881208
598,2.144897404
599,2.158041395
600,2.171343217
601,2.184827906
602,2.198532178
603,2.212464616
604,2.22664501
605,2.241049753
606,2.2556593
607,2.270502495
608,2.285550491
609,2.300807342
610,2.316243245
611,2.331863922
612,2.347656259
613,2.363663651
614,2.379888479
615,2.396340758
616,2.413031694
617,2.430020175
618,2.447325991
619,2.464949619
620,2.482916091
621,2.501274761
622,2.520019192
623,2.539127925
624,2.558564961
625,2.578282852
626,2.598318555
627,2.618664202
628,2.639266148
629,2.660109135
630,2.681146432
631,2.702459341
632,2.724085531
633,2.746001876
634,2.768180481
635,2.790651625
636,2.813430328
637,2.836591693
638,2.860076829
639,2.883959885
640,2.908251113
641,2.932963625
642,2.958037341
643,2.983484419
644,3.009293178
645,3.035490559
646,3.062132827
647,3.089154896
648,3.11650169
649,3.144191806
650,3.172255523
651,3.200769135
652,3.229737411
653,3.259057353
654,3.288768063
655,3.318835207
656,3.349261171
657,3.380076948
658,3.411218881
659,3.442836935
660,3.474860777
661,3.507290645
662,3.540136552
663,3.573444276
664,3.607213099
665,3.641458044
666,3.676237761
667,3.711489069
668,3.747186217
669,3.78341194
670,3.820221071
671,3.857647468
672,3.895634623
673,3.934118165
674,3.973152928
675,4.012703391
676,4.052798162
677,4.093487072
678,4.13481208
679,4.17695677
680,4.220006018
681,4.264182508
682,4.309698906
683,4.356696835
684,4.405320297
685,4.455689458
686,4.50774948
687,4.561205201
688,4.615771474
689,4.671163628
690,4.726891473
691,4.782302222
692,4.836666317
693,4.889191731
694,4.939254762
695,4.986102488
696,5.029210864
697,5.068135002
698,5.102702288
699,5.13305768
700,5.15951446
701,5.182620034
702,5.202798788
703,5.220706371
704,5.237065667
705,5.252522789
706,5.267520241
707,5.282599232
708,5.298236121
709,5.314881996
710,5.332766213
711,5.351951718
712,5.372535306
713,5.394496473
714,5.417847142
715,5.442446167
716,5.468151453
717,5.49495966
718,5.522921334
719,5.552178573
720,5.582711825
721,5.614652697
722,5.647813316
723,5.682416842
724,5.718482347
725,5.75593783
726,5.794696983
727,5.834776019
728,5.876133452
729,5.918799801
730,5.962730243
731,6.007902842
732,6.05438245
733,6.102067499
734,6.150881697
735,6.200707264
736,6.251486027
737,6.303368666
738,6.356301298
739,6.410252929
740,6.465280779
741,6.521538867
742,6.578960911
743,6.637825862
744,6.697968257
745,6.759369977
746,6.821955681
747,6.885891785
748,6.951101518
749,7.017668327
750,7.085551205
751,7.154834073
752,7.225241797
753,7.296689502
754,7.368995035
755,7.442107851
756,7.515823388
757,7.590298525
758,7.665372092
759,7.741085097
760,7.817512879
761,7.894787998
762,7.972980074
763,8.052222142
764,8.132308688
765,8.213429014
766,8.295905463
767,8.379759969
768,8.464869507
769,8.551409554
770,8.639256131
771,8.72852082
772,8.818816429
773,8.910191595
774,9.002500406
775,9.095647495
776,9.189464062
777,9.284328715
778,9.379961074
779,9.47641073
780,9.573651935
781,9.671824877
782,9.77083896
783,9.870646496
784,9.971032912
785,10.07252845
786,10.1751045
787,10.27836815
788,10.38243573
789,10.48753615
790,10.59349774
791,10.70057798
792,10.80868437
793,10.91789321
794,11.02856976
795,11.14078553
796,11.25447758
797,11.3698519
798,11.48666915
799,11.60505232
800,11.72496803
801,11.84658606
802,11.96983486
803,12.0947955
804,12.22151473
805,12.35049129
806,12.48153636
807,12.61469287
808,12.75047388
809,12.88920937
810,13.03115302
811,13.17702674
812,13.32755535
813,13.48322996
814,13.64529991
815,13.81410183
816,13.98997332
817,14.17453754
818,14.36882825
819,14.57432845
820,14.7925058
821,15.02538878
822,15.27445081
823,15.54190251
824,15.82920203
825,16.1395814
826,16.47490786
827,16.83810254
828,17.23213136
829,17.66077276
830,18.12773464
831,18.63770712
832,19.19613953
833,19.8066596
834,20.47706649
835,21.21215144
836,22.02079696
837,22.91097193
838,23.89170763
839,24.97363369
840,26.16768874
841,27.48608359
842,28.94323967
843,30.55498606
844,32.3355973
845,34.3111449
846,36.49530261
847,38.91982391
848,41.60117681
849,44.60452003
850,47.89848291
